#[MATERIAL DEFINITION FOR MC-GPU: interaction mean free path and sampling data from PENELOPE 2006]
#[MATERIAL NAME]
# Air_0                                                         
#[NOMINAL DENSITY (g/cm^3)]
#   0.00121000
#[NUMBER OF DATA VALUES]
#   1495
#[MEAN FREE PATHS (cm) (ie, average distance between interactions)]
#[Energy (eV)     | Rayleigh        | Compton         | Photoelectric   | TOTAL (+pair prod) (cm) | Rayleigh: max cumul prob F^2]
  5.0000000000E+03  1.5867306058E+03  8.4387181879E+03  2.0826667107E+01  2.0506892647E+01  3.3346912467E-01
  5.0969899666E+03  1.6219186026E+03  8.3407219333E+03  2.2065177154E+01  2.1712354788E+01  3.3826041709E-01
  5.1939799331E+03  1.6574470193E+03  8.2471926865E+03  2.3351754409E+01  2.2963206187E+01  3.4296433693E-01
  5.2909698997E+03  1.6933079148E+03  8.1578445474E+03  2.4687305779E+01  2.4260191977E+01  3.4758539863E-01
  5.3879598662E+03  1.7294932469E+03  8.0724138665E+03  2.6072737672E+01  2.5604049932E+01  3.5212782691E-01
  5.4849498328E+03  1.7659948983E+03  7.9906571721E+03  2.7509759681E+01  2.6996284255E+01  3.5659573801E-01
  5.5819397993E+03  1.8028047027E+03  7.9123493242E+03  2.9008247515E+01  2.8446240260E+01  3.6099313113E-01
  5.6789297659E+03  1.8399144703E+03  7.8372818675E+03  3.0560244916E+01  2.9946082414E+01  3.6532375951E-01
  5.7759197324E+03  1.8773160146E+03  7.7652615587E+03  3.2166689601E+01  3.1496544351E+01  3.6959122564E-01
  5.8729096990E+03  1.9150011784E+03  7.6961090477E+03  3.3828519028E+01  3.3098351280E+01  3.7379902881E-01
  5.9698996656E+03  1.9529618648E+03  7.6296576950E+03  3.5546670399E+01  3.4752219781E+01  3.7795047390E-01
  6.0668896321E+03  1.9911903248E+03  7.5657526190E+03  3.7327581427E+01  3.6464106928E+01  3.8204868329E-01
  6.1638795987E+03  2.0296796459E+03  7.5042499134E+03  3.9169729318E+01  3.8232342943E+01  3.8609661558E-01
  6.2608695652E+03  2.0684237249E+03  7.4450157216E+03  4.1071701443E+01  4.0055368838E+01  3.9009710934E-01
  6.3578595318E+03  2.1074166171E+03  7.3879251571E+03  4.3034459115E+01  4.1933885325E+01  3.9405285826E-01
  6.4548494983E+03  2.1466604898E+03  7.3329147823E+03  4.5058963630E+01  4.3868588785E+01  3.9796637377E-01
  6.5518394649E+03  2.1861507374E+03  7.2798851950E+03  4.7149402848E+01  4.5863215563E+01  4.0184005356E-01
  6.6488294314E+03  2.2258731057E+03  7.2286784278E+03  4.9305011646E+01  4.7916785042E+01  4.0567619358E-01
  6.7458193980E+03  2.2658218633E+03  7.1791981021E+03  5.1525640029E+01  5.0028902827E+01  4.0947699018E-01
  6.8428093645E+03  2.3059914555E+03  7.1313539263E+03  5.3812264334E+01  5.2200231581E+01  4.1324444508E-01
  6.9397993311E+03  2.3463765260E+03  7.0850612543E+03  5.6165861059E+01  5.4431423370E+01  4.1698041681E-01
  7.0367892977E+03  2.3869726676E+03  7.0402459477E+03  5.8596446234E+01  5.6731593419E+01  4.2068669956E-01
  7.1337792642E+03  2.4277963371E+03  6.9969869090E+03  6.1111906130E+01  5.9107809076E+01  4.2436503056E-01
  7.2307692308E+03  2.4688215967E+03  6.9550567931E+03  6.3698987414E+01  6.1547292151E+01  4.2801705053E-01
  7.3277591973E+03  2.5100447333E+03  6.9143888994E+03  6.6358718813E+01  6.4050687049E+01  4.3164419445E-01
  7.4247491639E+03  2.5514621945E+03  6.8749205856E+03  6.9092129564E+01  6.6618626234E+01  4.3524782503E-01
  7.5217391304E+03  2.5930818637E+03  6.8366751375E+03  7.1900249397E+01  6.9251746470E+01  4.3882927280E-01
  7.6187290970E+03  2.6349029473E+03  6.7996193892E+03  7.4784108530E+01  7.1950663357E+01  4.4238983017E-01
  7.7157190635E+03  2.6769075649E+03  6.7635959086E+03  7.7744737658E+01  7.4715952501E+01  4.4593063128E-01
  7.8127090301E+03  2.7190926380E+03  6.7285553548E+03  8.0783167939E+01  7.7548196489E+01  4.4945269292E-01
  7.9096989967E+03  2.7614707783E+03  6.6945689810E+03  8.3900430989E+01  8.0447995015E+01  4.5295701377E-01
  8.0066889632E+03  2.8040333402E+03  6.6615561018E+03  8.7098693010E+01  8.3416939653E+01  4.5644457600E-01
  8.1036789298E+03  2.8467668823E+03  6.6293921045E+03  9.0393734359E+01  8.6469041283E+01  4.5991625589E-01
  8.2006688963E+03  2.8896736937E+03  6.5980725779E+03  9.3771796138E+01  8.9591231798E+01  4.6337280322E-01
  8.2976588629E+03  2.9327707426E+03  6.5676990143E+03  9.7233943321E+01  9.2784095486E+01  4.6681495457E-01
  8.3946488294E+03  2.9760325116E+03  6.5380601870E+03  1.0078124157E+02  9.6048102278E+01  4.7024343953E-01
  8.4916387960E+03  3.0194580415E+03  6.5091302972E+03  1.0441475724E+02  9.9383761899E+01  4.7365890268E-01
  8.5886287625E+03  3.0630737036E+03  6.4810773686E+03  1.0813555734E+02  1.0279164891E+02  4.7706188324E-01
  8.6856187291E+03  3.1068483635E+03  6.4536616163E+03  1.1194470955E+02  1.0627216502E+02  4.8045291383E-01
  8.7826086957E+03  3.1507837876E+03  6.4268799149E+03  1.1584328220E+02  1.0982578409E+02  4.8383252229E-01
  8.8795986622E+03  3.1949028248E+03  6.4008728574E+03  1.1983234425E+02  1.1345303847E+02  4.8720115082E-01
  8.9765886288E+03  3.2391754057E+03  6.3754194376E+03  1.2391296530E+02  1.1715427348E+02  4.9055917289E-01
  9.0735785953E+03  3.2836116618E+03  6.3505744862E+03  1.2811021021E+02  1.2095133737E+02  4.9390696316E-01
  9.1705685619E+03  3.3282201070E+03  6.3263759292E+03  1.3241035272E+02  1.2483133982E+02  4.9724488293E-01
  9.2675585284E+03  3.3729776017E+03  6.3026595604E+03  1.3680708515E+02  1.2878797512E+02  5.0057320583E-01
  9.3645484950E+03  3.4179091001E+03  6.2795661855E+03  1.4130152445E+02  1.3282174494E+02  5.0389217941E-01
  9.4615384615E+03  3.4629971453E+03  6.2569712459E+03  1.4589478846E+02  1.3693296566E+02  5.0720205885E-01
  9.5585284281E+03  3.5082383537E+03  6.2348442721E+03  1.5058799593E+02  1.4112199090E+02  5.1050309656E-01
  9.6555183946E+03  3.5536543071E+03  6.2132923999E+03  1.5538226647E+02  1.4538927169E+02  5.1379541718E-01
  9.7525083612E+03  3.5992127769E+03  6.1921231282E+03  1.6027872056E+02  1.4973499658E+02  5.1707912410E-01
  9.8494983278E+03  3.6449451152E+03  6.1714945837E+03  1.6527847956E+02  1.5415963545E+02  5.2035432695E-01
  9.9464882943E+03  3.6908265115E+03  6.1512611517E+03  1.7038266565E+02  1.5866336989E+02  5.2362114134E-01
  1.0043478261E+04  3.7368657343E+03  6.1314591632E+03  1.7560224130E+02  1.6325503395E+02  5.2687968857E-01
  1.0140468227E+04  3.7830687625E+03  6.1120989378E+03  1.8094143832E+02  1.6793751754E+02  5.3013008439E-01
  1.0237458194E+04  3.8294157775E+03  6.0930787738E+03  1.8638961312E+02  1.7270074697E+02  5.3337234539E-01
  1.0334448161E+04  3.8759427215E+03  6.0745363493E+03  1.9194791933E+02  1.7754515854E+02  5.3660644645E-01
  1.0431438127E+04  3.9226043993E+03  6.0562712745E+03  1.9761751163E+02  1.8247072832E+02  5.3983236993E-01
  1.0528428094E+04  3.9694553198E+03  6.0384828537E+03  2.0339954571E+02  1.8747796888E+02  5.4305010464E-01
  1.0625418060E+04  4.0164432453E+03  6.0209601227E+03  2.0929517822E+02  1.9256677203E+02  5.4625964559E-01
  1.0722408027E+04  4.0636136566E+03  6.0038542272E+03  2.1530556685E+02  1.9773757337E+02  5.4946099248E-01
  1.0819397993E+04  4.1109307553E+03  5.9870286447E+03  2.2143187024E+02  2.0299031404E+02  5.5265409930E-01
  1.0916387960E+04  4.1584247839E+03  5.9705719123E+03  2.2767524799E+02  2.0832531315E+02  5.5583886679E-01
  1.1013377926E+04  4.2060736811E+03  5.9544013260E+03  2.3403686069E+02  2.1374255092E+02  5.5901520043E-01
  1.1110367893E+04  4.2538956632E+03  5.9385625538E+03  2.4051786986E+02  2.1924224340E+02  5.6218301222E-01
  1.1207357860E+04  4.3018786523E+03  5.9230076113E+03  2.4713146222E+02  2.2483434431E+02  5.6534222045E-01
  1.1304347826E+04  4.3500331223E+03  5.9077575796E+03  2.5389908885E+02  2.3053559756E+02  5.6849274840E-01
  1.1401337793E+04  4.3983521341E+03  5.8927815097E+03  2.6079156210E+02  2.3632075547E+02  5.7163448777E-01
  1.1498327759E+04  4.4468438145E+03  5.8780928229E+03  2.6781008557E+02  2.4218991258E+02  5.7476729534E-01
  1.1595317726E+04  4.4955003876E+03  5.8636612371E+03  2.7495586397E+02  2.4814302743E+02  5.7789103313E-01
  1.1692307692E+04  4.5443341787E+03  5.8495081793E+03  2.8223010312E+02  2.5418018847E+02  5.8100556968E-01
  1.1789297659E+04  4.5933294301E+03  5.8355888920E+03  2.8963400989E+02  2.6030125808E+02  5.8411077983E-01
  1.1886287625E+04  4.6425104003E+03  5.8219472972E+03  2.9716879224E+02  2.6650637601E+02  5.8720654026E-01
  1.1983277592E+04  4.6918449967E+03  5.8085101622E+03  3.0483565919E+02  2.7279524353E+02  5.9029269639E-01
  1.2080267559E+04  4.7413783736E+03  5.7953572956E+03  3.1263582082E+02  2.7916812448E+02  5.9336908280E-01
  1.2177257525E+04  4.7910525033E+03  5.7823740574E+03  3.2057048826E+02  2.8562447779E+02  5.9643554073E-01
  1.2274247492E+04  4.8409436649E+03  5.7696885078E+03  3.2864087365E+02  2.9216478155E+02  5.9949191794E-01
  1.2371237458E+04  4.8909570105E+03  5.7571326670E+03  3.3684819018E+02  2.9878815294E+02  6.0253806940E-01
  1.2468227425E+04  4.9412115124E+03  5.7448942714E+03  3.4519365206E+02  3.0549539393E+02  6.0557386320E-01
  1.2565217391E+04  4.9915869610E+03  5.7327764247E+03  3.5370595190E+02  3.1230677990E+02  6.0859912088E-01
  1.2662207358E+04  5.0421880025E+03  5.7209314523E+03  3.6237367561E+02  3.1921288111E+02  6.1161365459E-01
  1.2759197324E+04  5.0929343075E+03  5.7092362660E+03  3.7118497098E+02  3.2620256364E+02  6.1461728349E-01
  1.2856187291E+04  5.1438810858E+03  5.6977607864E+03  3.8014109113E+02  3.3327606467E+02  6.1760983358E-01
  1.2953177258E+04  5.1950077459E+03  5.6864727301E+03  3.8924329038E+02  3.4043297811E+02  6.2059113759E-01
  1.3050167224E+04  5.2463000234E+03  5.6753462467E+03  3.9849282427E+02  3.4767290482E+02  6.2356103482E-01
  1.3147157191E+04  5.2978168978E+03  5.6644507028E+03  4.0789094952E+02  3.5499610861E+02  6.2651937106E-01
  1.3244147157E+04  5.3494554145E+03  5.6536559308E+03  4.1743892404E+02  3.6240134699E+02  6.2946599840E-01
  1.3341137124E+04  5.4013706414E+03  5.6431368364E+03  4.2713800691E+02  3.6988974560E+02  6.3240077512E-01
  1.3438127090E+04  5.4534101147E+03  5.6327154896E+03  4.3698945838E+02  3.7745955187E+02  6.3532354662E-01
  1.3535117057E+04  5.5056770272E+03  5.6224994180E+03  4.4699453986E+02  3.8511138718E+02  6.3823413018E-01
  1.3632107023E+04  5.5581278339E+03  5.6124386564E+03  4.5715451390E+02  3.9284448146E+02  6.4113235045E-01
  1.3729096990E+04  5.6107432217E+03  5.6025082628E+03  4.6747830603E+02  4.0066387007E+02  6.4401803909E-01
  1.3826086957E+04  5.6636159229E+03  5.5927958983E+03  4.7797302868E+02  4.0857428221E+02  6.4689103469E-01
  1.3923076923E+04  5.7166120372E+03  5.5831680894E+03  4.8862721767E+02  4.1656452197E+02  6.4975118267E-01
  1.4020066890E+04  5.7698807810E+03  5.5737590703E+03  4.9944215299E+02  4.2463569524E+02  6.5259833509E-01
  1.4117056856E+04  5.8233105340E+03  5.5644637429E+03  5.1041911579E+02  4.3278619691E+02  6.5543235062E-01
  1.4214046823E+04  5.8769277998E+03  5.5553013276E+03  5.2155938839E+02  4.4101581788E+02  6.5825309436E-01
  1.4311036789E+04  5.9308021952E+03  5.5463277050E+03  5.3286425428E+02  4.4932485276E+02  6.6106043571E-01
  1.4408026756E+04  5.9848015684E+03  5.5374290431E+03  5.4433499806E+02  4.5771133257E+02  6.6385422770E-01
  1.4505016722E+04  6.0390915010E+03  5.5287348708E+03  5.5597290550E+02  4.6617659717E+02  6.6663431929E-01
  1.4602006689E+04  6.0935478992E+03  5.5201438407E+03  5.6777926350E+02  4.7471872517E+02  6.6940056674E-01
  1.4698996656E+04  6.1481818032E+03  5.5116612479E+03  5.7975536006E+02  4.8333726652E+02  6.7215283325E-01
  1.4795986622E+04  6.2031066260E+03  5.5033682794E+03  5.9190248432E+02  4.9203301863E+02  6.7489098878E-01
  1.4892976589E+04  6.2581584452E+03  5.4951418512E+03  6.0422192652E+02  5.0080344452E+02  6.7761490996E-01
  1.4989966555E+04  6.3134800038E+03  5.4870798726E+03  6.1671497801E+02  5.0964967116E+02  6.8032447999E-01
  1.5086956522E+04  6.3690131493E+03  5.4791390318E+03  6.2945552444E+02  5.1861968726E+02  6.8301958848E-01
  1.5183946488E+04  6.4246742019E+03  5.4712604591E+03  6.4238332527E+02  5.2766937845E+02  6.8570012960E-01
  1.5280936455E+04  6.4806945366E+03  5.4635935207E+03  6.5549148925E+02  5.3679545190E+02  6.8836598734E-01
  1.5377926421E+04  6.5368494737E+03  5.4559890756E+03  6.6878135782E+02  5.4599437269E+02  6.9101704459E-01
  1.5474916388E+04  6.5932018958E+03  5.4484852145E+03  6.8225427370E+02  5.5526625847E+02  6.9365319111E-01
  1.5571906355E+04  6.6498615491E+03  5.4411472225E+03  6.9591158091E+02  5.6461193030E+02  6.9627432333E-01
  1.5668896321E+04  6.7066517688E+03  5.4338645847E+03  7.0975462476E+02  5.7402829096E+02  6.9888034421E-01
  1.5765886288E+04  6.7637084154E+03  5.4267159541E+03  7.2378475185E+02  5.8351648871E+02  7.0147116318E-01
  1.5862876254E+04  6.8210159849E+03  5.4196896339E+03  7.3800331005E+02  5.9307562522E+02  7.0404669594E-01
  1.5959866221E+04  6.8784553429E+03  5.4127151583E+03  7.5241164848E+02  6.0270324245E+02  7.0660686431E-01
  1.6056856187E+04  6.9362227441E+03  5.4059001527E+03  7.6701111754E+02  6.1240143912E+02  7.0915158922E-01
  1.6153846154E+04  6.9941923388E+03  5.3991724894E+03  7.8180306889E+02  6.2216764953E+02  7.1168078526E-01
  1.6250836120E+04  7.0522950478E+03  5.3924933970E+03  7.9678885540E+02  6.3200002567E+02  7.1419437236E-01
  1.6347826087E+04  7.1107784922E+03  5.3859915589E+03  8.1196983121E+02  6.4190156389E+02  7.1669227682E-01
  1.6444816054E+04  7.1694245683E+03  5.3795503542E+03  8.2734735167E+02  6.5186816022E+02  7.1917443121E-01
  1.6541806020E+04  7.2282078493E+03  5.3731559905E+03  8.4292277337E+02  6.6189855196E+02  7.2164077424E-01
  1.6638795987E+04  7.2874086469E+03  5.3669465939E+03  8.5869745412E+02  6.7199640788E+02  7.2409125061E-01
  1.6735785953E+04  7.3467459976E+03  5.3607804011E+03  8.7467275291E+02  6.8215643156E+02  7.2652581083E-01
  1.6832775920E+04  7.4062399093E+03  5.3546665614E+03  8.9085002997E+02  6.9237804810E+02  7.2894440591E-01
  1.6929765886E+04  7.4661454769E+03  5.3487241430E+03  9.0723064670E+02  7.0266468073E+02  7.3134698169E-01
  1.7026755853E+04  7.5261892224E+03  5.3428222097E+03  9.2381596572E+02  7.1301092970E+02  7.3373348880E-01
  1.7123745819E+04  7.5863947636E+03  5.3369710926E+03  9.4060735081E+02  7.2341626810E+02  7.3610388384E-01
  1.7220735786E+04  7.6470204367E+03  5.3312853679E+03  9.5760616693E+02  7.3388433198E+02  7.3845812922E-01
  1.7317725753E+04  7.7077860142E+03  5.3256375828E+03  9.7481378023E+02  7.4440938797E+02  7.4079619309E-01
  1.7414715719E+04  7.7687026432E+03  5.3200322445E+03  9.9223155800E+02  7.5499067519E+02  7.4311804912E-01
  1.7511705686E+04  7.8300639083E+03  5.3145935441E+03  1.0098750024E+03  7.6564074930E+02  7.4542367912E-01
  1.7608695652E+04  7.8915669043E+03  5.3091903974E+03  1.0278362909E+03  7.7640489081E+02  7.4771307582E-01
  1.7705685619E+04  7.9532111751E+03  5.3038223780E+03  1.0460153980E+03  7.8722335560E+02  7.4998620952E-01
  1.7802675585E+04  8.0153034548E+03  5.2986139912E+03  1.0644137443E+03  7.9810100573E+02  7.5224305239E-01
  1.7899665552E+04  8.0775581149E+03  5.2934466072E+03  1.0830327514E+03  8.0903155220E+02  7.5448358240E-01
  1.7996655518E+04  8.1399559670E+03  5.2883121461E+03  1.1018738424E+03  8.2001361251E+02  7.5670778315E-01
  1.8093645485E+04  8.2027618234E+03  5.2833140171E+03  1.1209384419E+03  8.3105144047E+02  7.5891564373E-01
  1.8190635452E+04  8.2657816454E+03  5.2783740736E+03  1.1402279757E+03  8.4214031669E+02  7.6110715855E-01
  1.8287625418E+04  8.3289466504E+03  5.2734649813E+03  1.1597438707E+03  8.5327785252E+02  7.6328232718E-01
  1.8384615385E+04  8.3924588555E+03  5.2686626637E+03  1.1794875555E+03  8.6446719661E+02  7.6544115423E-01
  1.8481605351E+04  8.4562574933E+03  5.2639423039E+03  1.1994604598E+03  8.7570620779E+02  7.6758364916E-01
  1.8578595318E+04  8.5202033790E+03  5.2592508475E+03  1.2196640145E+03  8.8699098923E+02  7.6970982617E-01
  1.8675585284E+04  8.5844132219E+03  5.2546304896E+03  1.2400996521E+03  8.9832300092E+02  7.7181970399E-01
  1.8772575251E+04  8.6490044908E+03  5.2501222896E+03  1.2607688061E+03  9.0970386027E+02  7.7391330580E-01
  1.8869565217E+04  8.7137451465E+03  5.2456411595E+03  1.2816729115E+03  9.2112757482E+02  7.7599065904E-01
  1.8966555184E+04  8.7786423778E+03  5.2411894634E+03  1.3028134044E+03  9.3259323989E+02  7.7805178861E-01
  1.9063545151E+04  8.8440402474E+03  5.2368864016E+03  1.3241917223E+03  9.4410759544E+02  7.8009670697E-01
  1.9160535117E+04  8.9095897171E+03  5.2326086830E+03  1.3458093039E+03  9.5566187466E+02  7.8212542908E-01
  1.9257525084E+04  8.9752903681E+03  5.2283560314E+03  1.3676675892E+03  9.6725499634E+02  7.8413797477E-01
  1.9354515050E+04  9.0413810796E+03  5.2242082960E+03  1.3897680194E+03  9.7889149458E+02  7.8613436858E-01
  1.9451505017E+04  9.1077535549E+03  5.2201274417E+03  1.4121120370E+03  9.9056793999E+02  7.8811463960E-01
  1.9548494983E+04  9.1742795055E+03  5.2160700491E+03  1.4347010858E+03  1.0022802856E+03  7.9007882131E-01
  1.9645484950E+04  9.2410419390E+03  5.2120628270E+03  1.4575366108E+03  1.0140294701E+03  7.9202695140E-01
  1.9742474916E+04  9.3082517523E+03  5.2081726329E+03  1.4806200580E+03  1.0258196782E+03  7.9395907166E-01
  1.9839464883E+04  9.3756174096E+03  5.2043043859E+03  1.5039528750E+03  1.0376428484E+03  7.9587522779E-01
  1.9936454849E+04  9.4431385078E+03  5.2004578558E+03  1.5275365104E+03  1.0494978952E+03  7.9777546927E-01
  2.0033444816E+04  9.5110971608E+03  5.1967205155E+03  1.5513986863E+03  1.0614032068E+03  7.9965984920E-01
  2.0130434783E+04  9.5793159718E+03  5.1930355695E+03  1.5755658472E+03  1.0733646965E+03  8.0152842417E-01
  2.0227424749E+04  9.6476926631E+03  5.1893709294E+03  1.5999902044E+03  1.0853554606E+03  8.0338125286E-01
  2.0324414716E+04  9.7162986502E+03  5.1857482737E+03  1.6246732356E+03  1.0973763041E+03  8.0521838406E-01
  2.0421404682E+04  9.7853780220E+03  5.1822408297E+03  1.6496164202E+03  1.1094327353E+03  8.0703986266E-01
  2.0518394649E+04  9.8546177213E+03  5.1787523602E+03  1.6748212386E+03  1.1215155103E+03  8.0884573743E-01
  2.0615384615E+04  9.9240173595E+03  5.1752826734E+03  1.7002891727E+03  1.1336235449E+03  8.1063606101E-01
  2.0712374582E+04  9.9937996195E+03  5.1718981626E+03  1.7260217054E+03  1.1457619564E+03  8.1241088971E-01
  2.0809364548E+04  1.0063907466E+04  5.1685803434E+03  1.7520203211E+03  1.1579282815E+03  8.1417028339E-01
  2.0906354515E+04  1.0134177692E+04  5.1652800658E+03  1.7782865054E+03  1.1701169711E+03  8.1591430529E-01
  2.1003344482E+04  1.0204609919E+04  5.1619971564E+03  1.8048217451E+03  1.1823269530E+03  8.1764302187E-01
  2.1100334448E+04  1.0275554454E+04  5.1588340104E+03  1.8316275284E+03  1.1945673969E+03  8.1935650270E-01
  2.1197324415E+04  1.0346700199E+04  5.1556979605E+03  1.8587053446E+03  1.2068283971E+03  8.2105482027E-01
  2.1294314381E+04  1.0418010378E+04  5.1525781206E+03  1.8860566842E+03  1.2191078425E+03  8.2273804989E-01
  2.1391304348E+04  1.0489550597E+04  5.1494933928E+03  1.9136830391E+03  1.2314066764E+03  8.2440626954E-01
  2.1488294314E+04  1.0561576597E+04  5.1465166381E+03  1.9415859024E+03  1.2437317497E+03  8.2605954906E-01
  2.1585284281E+04  1.0633769453E+04  5.1435549982E+03  1.9697667684E+03  1.2560724653E+03  8.2769795229E-01
  2.1682274247E+04  1.0706128798E+04  5.1406083291E+03  1.9982271326E+03  1.2684277829E+03  8.2932155130E-01
  2.1779264214E+04  1.0778797984E+04  5.1377172083E+03  2.0269684917E+03  1.2808012266E+03  8.3093042107E-01
  2.1876254181E+04  1.0851878048E+04  5.1349091287E+03  2.0559923437E+03  1.2931951499E+03  8.3252463929E-01
  2.1973244147E+04  1.0925127015E+04  5.1321149960E+03  2.0853001877E+03  1.3056009396E+03  8.3410428622E-01
  2.2070234114E+04  1.0998544528E+04  5.1293346799E+03  2.1148935241E+03  1.3180175783E+03  8.3566939193E-01
  2.2167224080E+04  1.1072326471E+04  5.1266226169E+03  2.1447738545E+03  1.3304505626E+03  8.3722009926E-01
  2.2264214047E+04  1.1146469385E+04  5.1239766509E+03  2.1749426816E+03  1.3428989661E+03  8.3875666556E-01
  2.2361204013E+04  1.1220783252E+04  5.1213435433E+03  2.2054021985E+03  1.3553558205E+03  8.4027934097E-01
  2.2458193980E+04  1.1295267720E+04  5.1187231762E+03  2.2362867641E+03  1.3678698343E+03  8.4178836869E-01
  2.2555183946E+04  1.1370145458E+04  5.1161763182E+03  2.2674675852E+03  1.3803980397E+03  8.4328398454E-01
  2.2652173913E+04  1.1445359797E+04  5.1136862991E+03  2.2989462059E+03  1.3929376877E+03  8.4476629390E-01
  2.2749163880E+04  1.1520747137E+04  5.1112081229E+03  2.3307241720E+03  1.4054821966E+03  8.4623532100E-01
  2.2846153846E+04  1.1596307135E+04  5.1087416831E+03  2.3628030305E+03  1.4180305917E+03  8.4769113615E-01
  2.2943143813E+04  1.1672262976E+04  5.1063468222E+03  2.3951843295E+03  1.4305899682E+03  8.4913381189E-01
  2.3040133779E+04  1.1748557101E+04  5.1040069479E+03  2.4278696188E+03  1.4431574919E+03  8.5056342284E-01
  2.3137123746E+04  1.1825026275E+04  5.1016779684E+03  2.4608604491E+03  1.4557263868E+03  8.5198004564E-01
  2.3234113712E+04  1.1901670162E+04  5.0993597875E+03  2.4941583726E+03  1.4682957096E+03  8.5338375881E-01
  2.3331103679E+04  1.1978685720E+04  5.0971043142E+03  2.5277649429E+03  1.4808719301E+03  8.5477464261E-01
  2.3428093645E+04  1.2056067777E+04  5.0949091202E+03  2.5616817146E+03  1.4934541194E+03  8.5615277900E-01
  2.3525083612E+04  1.2133626929E+04  5.0927239348E+03  2.5959102438E+03  1.5060343221E+03  8.5751825149E-01
  2.3622073579E+04  1.2211362849E+04  5.0905486716E+03  2.6304520879E+03  1.5186116290E+03  8.5887114505E-01
  2.3719063545E+04  1.2289419070E+04  5.0884205322E+03  2.6653088053E+03  1.5311907494E+03  8.6021154505E-01
  2.3816053512E+04  1.2367896990E+04  5.0863648663E+03  2.7004819560E+03  1.5437749191E+03  8.6153953077E-01
  2.3913043478E+04  1.2446554050E+04  5.0843183804E+03  2.7359731010E+03  1.5563538842E+03  8.6285517985E-01
  2.4010033445E+04  1.2525389930E+04  5.0822809965E+03  2.7717838028E+03  1.5689267716E+03  8.6415857159E-01
  2.4107023411E+04  1.2604467123E+04  5.0802686545E+03  2.8079156250E+03  1.5814952581E+03  8.6544978692E-01
  2.4204013378E+04  1.2684048621E+04  5.0783476543E+03  2.8443701325E+03  1.5940692753E+03  8.6672890827E-01
  2.4301003344E+04  1.2763811301E+04  5.0764350587E+03  2.8811488914E+03  1.6066350161E+03  8.6799601947E-01
  2.4397993311E+04  1.2843754850E+04  5.0745307974E+03  2.9182534690E+03  1.6191916450E+03  8.6925120564E-01
  2.4494983278E+04  1.2923878958E+04  5.0726348012E+03  2.9556854341E+03  1.6317383355E+03  8.7049455315E-01
  2.4591973244E+04  1.3004525295E+04  5.0708322694E+03  2.9934463564E+03  1.6442887037E+03  8.7172614945E-01
  2.4688963211E+04  1.3085401090E+04  5.0690490200E+03  3.0315378070E+03  1.6568298129E+03  8.7294608307E-01
  2.4785953177E+04  1.3166459801E+04  5.0672733857E+03  3.0699613583E+03  1.6693589281E+03  8.7415444200E-01
  2.4882943144E+04  1.3247701123E+04  5.0655053045E+03  3.1087185837E+03  1.6818752620E+03  8.7535130851E-01
  2.4979933110E+04  1.3329328330E+04  5.0637946967E+03  3.1478110581E+03  1.6943869222E+03  8.7653676417E-01
  2.5076923077E+04  1.3411324358E+04  5.0621364482E+03  3.1873698145E+03  1.7069297071E+03  8.7771089183E-01
  2.5173913043E+04  1.3493505344E+04  5.0604851408E+03  3.2273037769E+03  1.7194674626E+03  8.7887377548E-01
  2.5270903010E+04  1.3575870989E+04  5.0588407189E+03  3.2675811319E+03  1.7319897471E+03  8.8002550018E-01
  2.5367892977E+04  1.3658457327E+04  5.0572119092E+03  3.3082034911E+03  1.7444974505E+03  8.8116615199E-01
  2.5464882943E+04  1.3741579420E+04  5.0556742356E+03  3.3491724676E+03  1.7570041703E+03  8.8229581786E-01
  2.5561872910E+04  1.3824888498E+04  5.0541428723E+03  3.3904896756E+03  1.7694935702E+03  8.8341458555E-01
  2.5658862876E+04  1.3908384269E+04  5.0526177698E+03  3.4321567307E+03  1.7819649334E+03  8.8452254358E-01
  2.5755852843E+04  1.3992066443E+04  5.0510988789E+03  3.4741752495E+03  1.7944175532E+03  8.8561978086E-01
  2.5852842809E+04  1.4076161081E+04  5.0496396952E+03  3.5165468503E+03  1.8068613180E+03  8.8670638252E-01
  2.5949832776E+04  1.4160603356E+04  5.0482239970E+03  3.5592731524E+03  1.8192926911E+03  8.8778243061E-01
  2.6046822742E+04  1.4245234339E+04  5.0468139749E+03  3.6023557764E+03  1.8317036211E+03  8.8884800797E-01
  2.6143812709E+04  1.4330053746E+04  5.0454095851E+03  3.6457963442E+03  1.8440934421E+03  8.8990319831E-01
  2.6240802676E+04  1.4415062105E+04  5.0440109733E+03  3.6895964789E+03  1.8564615376E+03  8.9094808610E-01
  2.6337792642E+04  1.4500642387E+04  5.0427068794E+03  3.7337578050E+03  1.8688258228E+03  8.9198275653E-01
  2.6434782609E+04  1.4586413372E+04  5.0414079143E+03  3.7782819480E+03  1.8811674176E+03  8.9300729540E-01
  2.6531772575E+04  1.4672374783E+04  5.0401140393E+03  3.8231705350E+03  1.8934856970E+03  8.9402178905E-01
  2.6628762542E+04  1.4758526344E+04  5.0388252158E+03  3.8684251939E+03  1.9057800460E+03  8.9502632433E-01
  2.6725752508E+04  1.4844997127E+04  5.0375709510E+03  3.9140475543E+03  1.9180563026E+03  8.9602098829E-01
  2.6822742475E+04  1.4931912612E+04  5.0363792214E+03  3.9600392467E+03  1.9303202672E+03  8.9700586461E-01
  2.6919732441E+04  1.5019020505E+04  5.0351920736E+03  4.0064019029E+03  1.9425588675E+03  8.9798103411E-01
  2.7016722408E+04  1.5106320534E+04  5.0340094737E+03  4.0531371560E+03  1.9547715290E+03  8.9894657819E-01
  2.7113712375E+04  1.5193812433E+04  5.0328313879E+03  4.1002466404E+03  1.9669576874E+03  8.9990257879E-01
  2.7210702341E+04  1.5281722433E+04  5.0317085159E+03  4.1477319915E+03  1.9791284362E+03  9.0084911840E-01
  2.7307692308E+04  1.5369980993E+04  5.0306244939E+03  4.1955948460E+03  1.9912798185E+03  9.0178627996E-01
  2.7404682274E+04  1.5458433656E+04  5.0295445476E+03  4.2438532831E+03  2.0034070724E+03  9.0271414679E-01
  2.7501672241E+04  1.5547080160E+04  5.0284686472E+03  4.2925629302E+03  2.0155214584E+03  9.0363280253E-01
  2.7598662207E+04  1.5635920244E+04  5.0273967635E+03  4.3416567836E+03  2.0276069917E+03  9.0454233111E-01
  2.7695652174E+04  1.5725245528E+04  5.0263930196E+03  4.3911365027E+03  2.0396786387E+03  9.0544281590E-01
  2.7792642140E+04  1.5814854699E+04  5.0254123286E+03  4.4410037478E+03  2.0517254012E+03  9.0633433632E-01
  2.7889632107E+04  1.5904659661E+04  5.0244352444E+03  4.4912601807E+03  2.0637421541E+03  9.0721697071E-01
  2.7986622074E+04  1.5994660158E+04  5.0234617412E+03  4.5419074645E+03  2.0757284183E+03  9.0809079785E-01
  2.8083612040E+04  1.6084855938E+04  5.0224917935E+03  4.5929472635E+03  2.0876837242E+03  9.0895589684E-01
  2.8180602007E+04  1.6175571922E+04  5.0215955549E+03  4.6443812431E+03  2.0996253600E+03  9.0981234713E-01
  2.8277591973E+04  1.6266538904E+04  5.0207140764E+03  4.6962110701E+03  2.1115383552E+03  9.1066022839E-01
  2.8374581940E+04  1.6357703356E+04  5.0198357700E+03  4.7484384126E+03  2.1234193727E+03  9.1149962046E-01
  2.8471571906E+04  1.6449065028E+04  5.0189606136E+03  4.8010649398E+03  2.1352679805E+03  9.1233060337E-01
  2.8568561873E+04  1.6540623674E+04  5.0180885853E+03  4.8540923221E+03  2.1470837565E+03  9.1315325857E-01
  2.8665551839E+04  1.6632705198E+04  5.0172888265E+03  4.9075222314E+03  2.1588845881E+03  9.1396767090E-01
  2.8762541806E+04  1.6725036856E+04  5.0165026805E+03  4.9613563406E+03  2.1706549325E+03  9.1477391367E-01
  2.8859531773E+04  1.6817567650E+04  5.0157193035E+03  5.0155963238E+03  2.1823915574E+03  9.1557205901E-01
  2.8956521739E+04  1.6910297338E+04  5.0149386766E+03  5.0702438565E+03  2.1940940769E+03  9.1636217945E-01
  2.9053511706E+04  1.7003225681E+04  5.0141607809E+03  5.1253006152E+03  2.2057621138E+03  9.1714434784E-01
  2.9150501672E+04  1.7096647091E+04  5.0134470345E+03  5.1807682779E+03  2.2174122755E+03  9.1791863731E-01
  2.9247491639E+04  1.7190349949E+04  5.0127525615E+03  5.2366485236E+03  2.2290321609E+03  9.1868512122E-01
  2.9344481605E+04  1.7284253598E+04  5.0120604834E+03  5.2929430325E+03  2.2406168026E+03  9.1944387308E-01
  2.9441471572E+04  1.7378357804E+04  5.0113707840E+03  5.3496534861E+03  2.2521658582E+03  9.2019496657E-01
  2.9538461538E+04  1.7472662331E+04  5.0106834475E+03  5.4067815670E+03  2.2636789940E+03  9.2093847541E-01
  2.9635451505E+04  1.7567397559E+04  5.0100457667E+03  5.4643289593E+03  2.2751695096E+03  9.2167447338E-01
  2.9732441472E+04  1.7662477800E+04  5.0094395112E+03  5.5222973478E+03  2.2866321556E+03  9.2240303426E-01
  2.9829431438E+04  1.7757760475E+04  5.0088353032E+03  5.5806884189E+03  2.2980582404E+03  9.2312423176E-01
  2.9926421405E+04  1.7853245355E+04  5.0082331290E+03  5.6395038600E+03  2.3094474635E+03  9.2383813952E-01
  3.0023411371E+04  1.7948932211E+04  5.0076329754E+03  5.6987931679E+03  2.3208074615E+03  9.2454483107E-01
  3.0120401338E+04  1.8044954559E+04  5.0070618730E+03  5.7586626506E+03  2.3321629472E+03  9.2524437978E-01
  3.0217391304E+04  1.8141417203E+04  5.0065404914E+03  5.8189650938E+03  2.3434951178E+03  9.2593685883E-01
  3.0314381271E+04  1.8238083902E+04  5.0060208347E+03  5.8797022184E+03  2.3547894480E+03  9.2662234050E-01
  3.0411371237E+04  1.8334954433E+04  5.0055028916E+03  5.9408757465E+03  2.3660456736E+03  9.2730089155E-01
  3.0508361204E+04  1.8432028574E+04  5.0049866510E+03  6.0024874016E+03  2.3772635380E+03  9.2797257659E-01
  3.0605351171E+04  1.8529311090E+04  5.0044730996E+03  6.0645389084E+03  2.3884431027E+03  9.2863746042E-01
  3.0702341137E+04  1.8627158726E+04  5.0040332407E+03  6.1270319927E+03  2.3996063874E+03  9.2929560796E-01
  3.0799331104E+04  1.8725212003E+04  5.0035948076E+03  6.1899683818E+03  2.4107308797E+03  9.2994708421E-01
  3.0896321070E+04  1.8823470704E+04  5.0031577912E+03  6.2533498041E+03  2.4218163530E+03  9.3059195422E-01
  3.0993311037E+04  1.8921934611E+04  5.0027221826E+03  6.3171779891E+03  2.4328625881E+03  9.3123028306E-01
  3.1090301003E+04  1.9020603510E+04  5.0022879727E+03  6.3814546677E+03  2.4438693733E+03  9.3186213574E-01
  3.1187290970E+04  1.9119684663E+04  5.0018960576E+03  6.4461815720E+03  2.4548497772E+03  9.3248757724E-01
