#[MATERIAL DEFINITION FOR MC-GPU: interaction mean free path and sampling data from PENELOPE 2006]
#[MATERIAL NAME]
# Aluminium                                                     
#[NOMINAL DENSITY (g/cm^3)]
#   2.70000000
#[NUMBER OF DATA VALUES]
#   1495
#[MEAN FREE PATHS (cm) (ie, average distance between interactions)]
#[Energy (eV)     | Rayleigh        | Compton         | Photoelectric   | TOTAL (+pair prod) (cm) | Rayleigh: max cumul prob F^2]
  5.0000000000E+03  3.3379502561E-01  4.8168166306E+00  1.9282288699E-03  1.9163913258E-03  2.8508823804E-01
  5.0969899666E+03  3.3872011785E-01  4.7593536463E+00  2.0368913298E-03  2.0238547297E-03  2.9179229638E-01
  5.1939799331E+03  3.4370198627E-01  4.7039609571E+00  2.1494548036E-03  2.1351264427E-03  2.9844974748E-01
  5.2909698997E+03  3.4874182000E-01  4.6505387531E+00  2.2659825641E-03  2.2502648130E-03  3.0505766067E-01
  5.3879598662E+03  3.5384073001E-01  4.5989933350E+00  2.3865377110E-03  2.3693278786E-03  3.1161317779E-01
  5.4849498328E+03  3.5899974976E-01  4.5492366212E+00  2.5111831750E-03  2.4923733701E-03  3.1811364504E-01
  5.5819397993E+03  3.6421983554E-01  4.5011857016E+00  2.6399817209E-03  2.6194587137E-03  3.2455662159E-01
  5.6789297659E+03  3.6950186649E-01  4.4547624339E+00  2.7729959514E-03  2.7506410344E-03  3.3093987183E-01
  5.7759197324E+03  3.7484664446E-01  4.4098930782E+00  2.9102883096E-03  2.8859771578E-03  3.3726135653E-01
  5.8729096990E+03  3.8025489364E-01  4.3665079644E+00  3.0519210832E-03  3.0255236127E-03  3.4351915601E-01
  5.9698996656E+03  3.8572725866E-01  4.3245411839E+00  3.1979564064E-03  3.1693366324E-03  3.4971143875E-01
  6.0668896321E+03  3.9126423819E-01  4.2839300412E+00  3.3498363306E-03  3.3188267913E-03  3.5583655281E-01
  6.1638795987E+03  3.9686606999E-01  4.2446143702E+00  3.5069931992E-03  3.4734296603E-03  3.6189302250E-01
  6.2608695652E+03  4.0253274715E-01  4.2065364548E+00  3.6688958449E-03  3.6326179183E-03  3.6787954046E-01
  6.3578595318E+03  4.0826418783E-01  4.1696415510E+00  3.8356107254E-03  3.7964510425E-03  3.7379495532E-01
  6.4548494983E+03  4.1406555156E-01  4.1338969227E+00  4.0072041858E-03  3.9649887228E-03  3.7963819887E-01
  6.5518394649E+03  4.1993830873E-01  4.0992585916E+00  4.1837424609E-03  4.1382901122E-03  3.8540830067E-01
  6.6488294314E+03  4.2587699257E-01  4.0656604630E+00  4.3652916765E-03  4.3164133826E-03  3.9110443599E-01
  6.7458193980E+03  4.3188133292E-01  4.0330579787E+00  4.5519178519E-03  4.4994168838E-03  3.9672591953E-01
  6.8428093645E+03  4.3795099675E-01  4.0014087136E+00  4.7436869008E-03  4.6873586705E-03  4.0227219713E-01
  6.9397993311E+03  4.4408558604E-01  3.9706722317E+00  4.9406646336E-03  4.8802964996E-03  4.0774279564E-01
  7.0367892977E+03  4.5028529338E-01  3.9408121497E+00  5.1438045590E-03  5.0791535393E-03  4.1313729885E-01
  7.1337792642E+03  4.5656947096E-01  3.9118567960E+00  5.3538453564E-03  5.2846436626E-03  4.1845540477E-01
  7.2307692308E+03  4.6291852481E-01  3.8837061038E+00  5.5694519286E-03  5.4954543880E-03  4.2369692415E-01
  7.3277591973E+03  4.6933159812E-01  3.8563253229E+00  5.7906941327E-03  5.7116461964E-03  4.2886177155E-01
  7.4247491639E+03  4.7580779282E-01  3.8296813750E+00  6.0176417541E-03  5.9332792569E-03  4.3394991028E-01
  7.5217391304E+03  4.8235821848E-01  3.8037798061E+00  6.2503645078E-03  6.1604154848E-03  4.3896134917E-01
  7.6187290970E+03  4.8898657918E-01  3.7786031771E+00  6.4889320393E-03  6.3931155577E-03  4.4389619014E-01
  7.7157190635E+03  4.9567702232E-01  3.7540763958E+00  6.7334139254E-03  6.6314363327E-03  4.4875462432E-01
  7.8127090301E+03  5.0242850768E-01  3.7301720332E+00  6.9838796755E-03  6.8754367592E-03  4.5353691221E-01
  7.9096989967E+03  5.0925953738E-01  3.7069204435E+00  7.2403987322E-03  7.1251794944E-03  4.5824332535E-01
  8.0066889632E+03  5.1616474389E-01  3.6842821308E+00  7.5032418588E-03  7.3809173260E-03  4.6287419343E-01
  8.1036789298E+03  5.2312961465E-01  3.6621937011E+00  7.7750887327E-03  7.6452290755E-03  4.6742992087E-01
  8.2006688963E+03  5.3015925003E-01  3.6406493202E+00  8.0533739671E-03  7.9156219471E-03  4.7191099429E-01
  8.2976588629E+03  5.3727914829E-01  3.6196976718E+00  8.3381711912E-03  8.1921638292E-03  4.7631793787E-01
  8.3946488294E+03  5.4445705811E-01  3.5992312116E+00  8.6295539957E-03  8.4749085731E-03  4.8065121228E-01
  8.4916387960E+03  5.5169306276E-01  3.5792332670E+00  8.9275959332E-03  8.7639170298E-03  4.8491133587E-01
  8.5886287625E+03  5.5902695734E-01  3.5597887365E+00  9.2323705186E-03  9.0592608310E-03  4.8909888871E-01
  8.6856187291E+03  5.6641696019E-01  3.5407726271E+00  9.5439512299E-03  9.3609894282E-03  4.9321450720E-01
  8.7826086957E+03  5.7386696264E-01  3.5221801498E+00  9.8624115083E-03  9.6691638700E-03  4.9725887901E-01
  8.8795986622E+03  5.8141360220E-01  3.5040852309E+00  1.0187824758E-02  9.9838553723E-03  5.0123273813E-01
  8.9765886288E+03  5.8901416239E-01  3.4863688120E+00  1.0520264350E-02  1.0305110720E-02  5.0513685331E-01
  9.0735785953E+03  5.9668560728E-01  3.4690581866E+00  1.0860890902E-02  1.0634036884E-02  5.0897193613E-01
  9.1705685619E+03  6.0444214358E-01  3.4521740481E+00  1.1209103200E-02  1.0970049239E-02  5.1273867371E-01
  9.2675585284E+03  6.1224939090E-01  3.4356242045E+00  1.1564639317E-02  1.1312872828E-02  5.1643779807E-01
  9.3645484950E+03  6.2014536490E-01  3.4194859421E+00  1.1927574225E-02  1.1662581337E-02  5.2007008311E-01
  9.4615384615E+03  6.2810419165E-01  3.4036892265E+00  1.2297982868E-02  1.2019225066E-02  5.2363634005E-01
  9.5585284281E+03  6.3612213142E-01  3.3882148184E+00  1.2675940167E-02  1.2382861578E-02  5.2713741317E-01
  9.6555183946E+03  6.4422997140E-01  3.3731244224E+00  1.3061521019E-02  1.2753562567E-02  5.3057417538E-01
  9.7525083612E+03  6.5238281582E-01  3.3583056496E+00  1.3454800296E-02  1.3131367970E-02  5.3394747647E-01
  9.8494983278E+03  6.6062479592E-01  3.3438502951E+00  1.3855852845E-02  1.3516355206E-02  5.3725810093E-01
  9.9464882943E+03  6.6892179387E-01  3.3296726872E+00  1.4264753491E-02  1.3908567251E-02  5.4050685624E-01
  1.0043478261E+04  6.7728664232E-01  3.3157931408E+00  1.4683998534E-02  1.4310367311E-02  5.4369458030E-01
  1.0140468227E+04  6.8572615189E-01  3.3022179001E+00  1.5114410749E-02  1.4722519140E-02  5.4682213747E-01
  1.0237458194E+04  6.9421570306E-01  3.2888842858E+00  1.5553161127E-02  1.5142305853E-02  5.4989041487E-01
  1.0334448161E+04  7.0279854411E-01  3.2758750775E+00  1.6000329906E-02  1.5569810827E-02  5.5290031756E-01
  1.0431438127E+04  7.1142023022E-01  3.2630675728E+00  1.6455997328E-02  1.6005065839E-02  5.5585271202E-01
  1.0528428094E+04  7.2014407691E-01  3.2505823833E+00  1.6920243638E-02  1.6448165933E-02  5.5874841251E-01
  1.0625418060E+04  7.2890967210E-01  3.2382900575E+00  1.7393149088E-02  1.6899137247E-02  5.6158825253E-01
  1.0722408027E+04  7.3776786532E-01  3.2262822253E+00  1.7874793933E-02  1.7358068908E-02  5.6437308664E-01
  1.0819397993E+04  7.4667875873E-01  3.2144746414E+00  1.8365258433E-02  1.7824996513E-02  5.6710378710E-01
  1.0916387960E+04  7.5567490994E-01  3.2029209039E+00  1.8864622852E-02  1.8299999105E-02  5.6978124067E-01
  1.1013377926E+04  7.6473232892E-01  3.1915696456E+00  1.9372967458E-02  1.8783120229E-02  5.7240632902E-01
  1.1110367893E+04  7.7387009057E-01  3.1804482857E+00  1.9890372525E-02  1.9274430681E-02  5.7497986775E-01
  1.1207357860E+04  7.8307509349E-01  3.1695267913E+00  2.0416918329E-02  1.9773979713E-02  5.7750266739E-01
  1.1304347826E+04  7.9235815938E-01  3.1588175090E+00  2.0952685153E-02  2.0281832493E-02  5.7997555489E-01
  1.1401337793E+04  8.0171162814E-01  3.1483009210E+00  2.1497753281E-02  2.0798040900E-02  5.8239937053E-01
  1.1498327759E+04  8.1114373357E-01  3.1379847184E+00  2.2052203003E-02  2.1322667982E-02  5.8477496511E-01
  1.1595317726E+04  8.2064636583E-01  3.1278497483E+00  2.2616114613E-02  2.1855764220E-02  5.8710318665E-01
  1.1692307692E+04  8.3023128771E-01  3.1179088251E+00  2.3189568410E-02  2.2397395064E-02  5.8938482447E-01
  1.1789297659E+04  8.3988358875E-01  3.1081336307E+00  2.3772644695E-02  2.2947604484E-02  5.9162065531E-01
  1.1886287625E+04  8.4962514559E-01  3.0985512899E+00  2.4365423775E-02  2.3506465998E-02  5.9381146807E-01
  1.1983277592E+04  8.5942741987E-01  3.0891153642E+00  2.4967985959E-02  2.4074010748E-02  5.9595806119E-01
  1.2080267559E+04  8.6932947162E-01  3.0798759266E+00  2.5580411562E-02  2.4650327260E-02  5.9806124009E-01
  1.2177257525E+04  8.7928181405E-01  3.0707599962E+00  2.6202780902E-02  2.5235426179E-02  6.0012179724E-01
  1.2274247492E+04  8.8934826187E-01  3.0618487227E+00  2.6835174301E-02  2.5829419403E-02  6.0214047155E-01
  1.2371237458E+04  8.9945054710E-01  3.0530346569E+00  2.7477672084E-02  2.6432287910E-02  6.0411799943E-01
  1.2468227425E+04  9.0968519244E-01  3.0444376785E+00  2.8130354581E-02  2.7044176788E-02  6.0605512578E-01
  1.2565217391E+04  9.1995563467E-01  3.0359312450E+00  2.8798264338E-02  2.7669626367E-02  6.0795260161E-01
  1.2662207358E+04  9.3033887720E-01  3.0276126837E+00  2.9479178630E-02  2.8306625664E-02  6.0981118000E-01
  1.2759197324E+04  9.4077656397E-01  3.0194026794E+00  3.0170812073E-02  2.8952979516E-02  6.1163157806E-01
  1.2856187291E+04  9.5129868561E-01  3.0113454004E+00  3.0873250003E-02  2.9608774611E-02  6.1341448242E-01
  1.2953177258E+04  9.6189331522E-01  3.0034198715E+00  3.1586577783E-02  3.0274052515E-02  6.1516058547E-01
  1.3050167224E+04  9.7254665724E-01  2.9956091242E+00  3.2310880797E-02  3.0948851476E-02  6.1687058473E-01
  1.3147157191E+04  9.8328687375E-01  2.9879567865E+00  3.3046244458E-02  3.1633257951E-02  6.1854518075E-01
  1.3244147157E+04  9.9406544818E-01  2.9803800283E+00  3.3792754203E-02  3.2327265485E-02  6.2018505565E-01
  1.3341137124E+04  1.0049386908E+00  2.9729888211E+00  3.4550495491E-02  3.3030997967E-02  6.2179085156E-01
  1.3438127090E+04  1.0158515209E+00  2.9656706647E+00  3.5319553809E-02  3.3744434877E-02  6.2336321058E-01
  1.3535117057E+04  1.0268308761E+00  2.9584927043E+00  3.6100014667E-02  3.4467664233E-02  6.2490277889E-01
  1.3632107023E+04  1.0378654144E+00  2.9514232902E+00  3.6891963598E-02  3.5200719703E-02  6.2641020492E-01
  1.3729096990E+04  1.0489462941E+00  2.9444464073E+00  3.7695486161E-02  3.5943637878E-02  6.2788612441E-01
  1.3826086957E+04  1.0600895110E+00  2.9376163980E+00  3.8510667939E-02  3.6696494311E-02  6.2933113506E-01
  1.3923076923E+04  1.0712719668E+00  2.9308498116E+00  3.9337594535E-02  3.7459296882E-02  6.3074583143E-01
  1.4020066890E+04  1.0825070644E+00  2.9242296055E+00  4.0176351581E-02  3.8232122236E-02  6.3213081103E-01
  1.4117056856E+04  1.0937846659E+00  2.9176903549E+00  4.1027024728E-02  3.9014993910E-02  6.3348667250E-01
  1.4214046823E+04  1.1051023049E+00  2.9112435812E+00  4.1889699652E-02  3.9807956208E-02  6.3481399399E-01
  1.4311036789E+04  1.1164609233E+00  2.9049234497E+00  4.2764462052E-02  4.0611061967E-02  6.3611333411E-01
  1.4408026756E+04  1.1278583854E+00  2.8986595892E+00  4.3651397650E-02  4.1424339293E-02  6.3738525279E-01
  1.4505016722E+04  1.1392856306E+00  2.8925311608E+00  4.4550592190E-02  4.2247835424E-02  6.3863073959E-01
  1.4602006689E+04  1.1507491502E+00  2.8864758025E+00  4.5462131440E-02  4.3081589297E-02  6.3986888588E-01
  1.4698996656E+04  1.1622448959E+00  2.8804964476E+00  4.6386101189E-02  4.3925637777E-02  6.4110956940E-01
  1.4795986622E+04  1.1737593409E+00  2.8746423273E+00  4.7322587249E-02  4.4780014277E-02  6.4235270983E-01
  1.4892976589E+04  1.1853115094E+00  2.8688382378E+00  4.8271675454E-02  4.5644768984E-02  6.4359822614E-01
  1.4989966555E+04  1.1968767562E+00  2.8631433172E+00  4.9233451660E-02  4.6519919936E-02  6.4484603766E-01
  1.5086956522E+04  1.2084647629E+00  2.8575310892E+00  5.0216641302E-02  4.7413215616E-02  6.4609606413E-01
  1.5183946488E+04  1.2200896269E+00  2.8519657207E+00  5.1213989087E-02  4.8318136708E-02  6.4734822568E-01
  1.5280936455E+04  1.2317108381E+00  2.8465369224E+00  5.2224605003E-02  4.9233810098E-02  6.4860244285E-01
  1.5377926421E+04  1.2433672529E+00  2.8411547182E+00  5.3248579665E-02  5.0160310325E-02  6.4985863658E-01
  1.5474916388E+04  1.2550492692E+00  2.8358417090E+00  5.4286003729E-02  5.1097667645E-02  6.5111672828E-01
  1.5571906355E+04  1.2667400370E+00  2.8306367102E+00  5.5336967887E-02  5.2045904936E-02  6.5237663975E-01
  1.5668896321E+04  1.2784660993E+00  2.8254734952E+00  5.6401562875E-02  5.3005082138E-02  6.5363829327E-01
  1.5765886288E+04  1.2902096272E+00  2.8203985988E+00  5.7479879463E-02  5.3975221795E-02  6.5490161156E-01
  1.5862876254E+04  1.3019724229E+00  2.8154048760E+00  5.8572008464E-02  5.4956360789E-02  6.5616651780E-01
  1.5959866221E+04  1.3137697770E+00  2.8104503544E+00  5.9678040727E-02  5.5948545867E-02  6.5743293565E-01
  1.6056856187E+04  1.3255800151E+00  2.8055983231E+00  6.0798067141E-02  5.6951797636E-02  6.5870078924E-01
  1.6153846154E+04  1.3374167375E+00  2.8008060766E+00  6.1932178630E-02  5.7966158156E-02  6.5997000320E-01
  1.6250836120E+04  1.3492873495E+00  2.7960506298E+00  6.3080466160E-02  5.8991664801E-02  6.6124050265E-01
  1.6347826087E+04  1.3611693105E+00  2.7914071608E+00  6.4243020732E-02  6.0028340840E-02  6.6251221321E-01
  1.6444816054E+04  1.3730821671E+00  2.7868072274E+00  6.5419933384E-02  6.1076225454E-02  6.6378506101E-01
  1.6541806020E+04  1.3850281175E+00  2.7822426297E+00  6.6611295194E-02  6.2135350060E-02  6.6505897270E-01
  1.6638795987E+04  1.3969867624E+00  2.7777935185E+00  6.7817197274E-02  6.3205744543E-02  6.6633387545E-01
  1.6735785953E+04  1.4089782544E+00  2.7733773194E+00  6.9037730775E-02  6.4287438491E-02  6.6760969697E-01
  1.6832775920E+04  1.4210013639E+00  2.7689991996E+00  7.0272986884E-02  6.5380460832E-02  6.6888636551E-01
  1.6929765886E+04  1.4330419064E+00  2.7647277599E+00  7.1523056824E-02  6.6484848813E-02  6.7016380984E-01
  1.7026755853E+04  1.4451148144E+00  2.7604872540E+00  7.2788031855E-02  6.7600619960E-02  6.7144195932E-01
  1.7123745819E+04  1.4572190550E+00  2.7562834972E+00  7.4068003271E-02  6.8727801988E-02  6.7272074382E-01
  1.7220735786E+04  1.4693444822E+00  2.7521820519E+00  7.5363062405E-02  6.9866440149E-02  6.7400009382E-01
  1.7317725753E+04  1.4815018535E+00  2.7481096936E+00  7.6673300624E-02  7.1016538950E-02  6.7527994034E-01
  1.7414715719E+04  1.4936908015E+00  2.7440688862E+00  7.7998809330E-02  7.2178123370E-02  6.7656021497E-01
  1.7511705686E+04  1.5059043449E+00  2.7401302311E+00  7.9340987120E-02  7.3352368239E-02  6.7784084990E-01
  1.7608695652E+04  1.5181494690E+00  2.7362189370E+00  8.0708316168E-02  7.4546414481E-02  6.7912177789E-01
  1.7705685619E+04  1.5304260806E+00  2.7323346646E+00  8.2091503953E-02  7.5752245869E-02  6.8040293228E-01
  1.7802675585E+04  1.5427312706E+00  2.7285477309E+00  8.3490646026E-02  7.6969933758E-02  6.8168424703E-01
  1.7899665552E+04  1.5550675613E+00  2.7247908925E+00  8.4905837985E-02  7.8199456528E-02  6.8296565653E-01
  1.7996655518E+04  1.5674350339E+00  2.7210594866E+00  8.6337175478E-02  7.9440831846E-02  6.8424709438E-01
  1.8093645485E+04  1.5798347474E+00  2.7174115200E+00  8.7784754202E-02  8.0694133878E-02  6.8552849402E-01
  1.8190635452E+04  1.5922657747E+00  2.7138029464E+00  8.9248669900E-02  8.1959344846E-02  6.8680978952E-01
  1.8287625418E+04  1.6047277315E+00  2.7102183160E+00  9.0729018366E-02  8.3236469258E-02  6.8809091554E-01
  1.8384615385E+04  1.6172240495E+00  2.7066999196E+00  9.2225895440E-02  8.4525575587E-02  6.8937180738E-01
  1.8481605351E+04  1.6297535946E+00  2.7032337763E+00  9.3739397009E-02  8.5826668234E-02  6.9065240096E-01
  1.8578595318E+04  1.6423138687E+00  2.6997901795E+00  9.5269619009E-02  8.7139728727E-02  6.9193263283E-01
  1.8675585284E+04  1.6549083016E+00  2.6963924462E+00  9.6816657422E-02  8.8464807416E-02  6.9321244015E-01
  1.8772575251E+04  1.6675403481E+00  2.6930632293E+00  9.8380608277E-02  8.9801957071E-02  6.9449176075E-01
  1.8869565217E+04  1.6802029741E+00  2.6897552477E+00  9.9961567651E-02  9.1151122498E-02  6.9577053308E-01
  1.8966555184E+04  1.6928964175E+00  2.6864697258E+00  1.0155963167E-01  9.2512318903E-02  6.9704869625E-01
  1.9063545151E+04  1.7056351425E+00  2.6832722379E+00  1.0317489649E-01  9.3885682789E-02  6.9832618999E-01
  1.9160535117E+04  1.7184043475E+00  2.6800947536E+00  1.0480745834E-01  9.5271103928E-02  6.9960295470E-01
  1.9257525084E+04  1.7312039505E+00  2.6769370474E+00  1.0645741347E-01  9.6668592408E-02  7.0087893144E-01
  1.9354515050E+04  1.7440468046E+00  2.6738427450E+00  1.0812485819E-01  9.8078257348E-02  7.0215406191E-01
  1.9451505017E+04  1.7569269996E+00  2.6707909195E+00  1.0980988886E-01  9.9500066978E-02  7.0342828848E-01
  1.9548494983E+04  1.7698375438E+00  2.6677577307E+00  1.1151260187E-01  1.0093397661E-01  7.0470155417E-01
  1.9645484950E+04  1.7827838212E+00  2.6647576335E+00  1.1323309365E-01  1.0238003269E-01  7.0597380266E-01
  1.9742474916E+04  1.7957795932E+00  2.6618268883E+00  1.1497146070E-01  1.0383834568E-01  7.0724497831E-01
  1.9839464883E+04  1.8088057138E+00  2.6589137056E+00  1.1672779956E-01  1.0530878497E-01  7.0851502613E-01
  1.9936454849E+04  1.8218621051E+00  2.6560178951E+00  1.1850220678E-01  1.0679135494E-01  7.0978389182E-01
  2.0033444816E+04  1.8349700788E+00  2.6531866619E+00  1.2029686509E-01  1.0828790293E-01  7.1105152172E-01
  2.0130434783E+04  1.8481161577E+00  2.6503892115E+00  1.2211385139E-01  1.0979993154E-01  7.1231786287E-01
  2.0227424749E+04  1.8612925517E+00  2.6476081354E+00  1.2394935020E-01  1.1132421026E-01  7.1358286295E-01
  2.0324414716E+04  1.8745049967E+00  2.6448550430E+00  1.2580346003E-01  1.1286078313E-01  7.1484647034E-01
  2.0421404682E+04  1.8877732032E+00  2.6421692714E+00  1.2767627941E-01  1.1440980027E-01  7.1610863408E-01
  2.0518394649E+04  1.9010717905E+00  2.6394989335E+00  1.2956790694E-01  1.1597107968E-01  7.1736930387E-01
  2.0615384615E+04  1.9144006841E+00  2.6368438683E+00  1.3147844124E-01  1.1754462045E-01  7.1862843010E-01
  2.0712374582E+04  1.9277786652E+00  2.6342396424E+00  1.3340798102E-01  1.1913056583E-01  7.1988596296E-01
  2.0809364548E+04  1.9412008696E+00  2.6316762492E+00  1.3535662501E-01  1.2072888298E-01  7.2114185170E-01
  2.0906354515E+04  1.9546534605E+00  2.6291272530E+00  1.3732447198E-01  1.2233946443E-01  7.2239604609E-01
  2.1003344482E+04  1.9681363652E+00  2.6265925068E+00  1.3931162077E-01  1.2396230595E-01  7.2364849659E-01
  2.1100334448E+04  1.9816804318E+00  2.6241267165E+00  1.4131817026E-01  1.2559765224E-01  7.2489915436E-01
  2.1197324415E+04  1.9952581879E+00  2.6216802349E+00  1.4334421938E-01  1.2724528457E-01  7.2614797126E-01
  2.1294314381E+04  2.0088663523E+00  2.6192471872E+00  1.4538986710E-01  1.2890517074E-01  7.2739489983E-01
  2.1391304348E+04  2.0225109159E+00  2.6168376013E+00  1.4745521243E-01  1.3057735379E-01  7.2863989332E-01
  2.1488294314E+04  2.0362153351E+00  2.6144902546E+00  1.4954035446E-01  1.3226202715E-01  7.2988290566E-01
  2.1585284281E+04  2.0499502699E+00  2.6121555705E+00  1.5164539229E-01  1.3395894147E-01  7.3112389148E-01
  2.1682274247E+04  2.0637156507E+00  2.6098334244E+00  1.5377042508E-01  1.3566808680E-01  7.3236280610E-01
  2.1779264214E+04  2.0775251516E+00  2.6075453342E+00  1.5591555204E-01  1.3738957250E-01  7.3359960554E-01
  2.1876254181E+04  2.0913883954E+00  2.6053058399E+00  1.5808087243E-01  1.3912347858E-01  7.3483424650E-01
  2.1973244147E+04  2.1052822063E+00  2.6030781632E+00  1.6026648554E-01  1.4086959377E-01  7.3606668637E-01
  2.2070234114E+04  2.1192065162E+00  2.6008621901E+00  1.6247249071E-01  1.4262790488E-01  7.3729688323E-01
  2.2167224080E+04  2.1331807716E+00  2.5986867140E+00  1.6469898735E-01  1.4439857647E-01  7.3852479585E-01
  2.2264214047E+04  2.1472045897E+00  2.5965505224E+00  1.6694607489E-01  1.4618159882E-01  7.3975038370E-01
  2.2361204013E+04  2.1612590415E+00  2.5944253612E+00  1.6921393479E-01  1.4797684899E-01  7.4097360689E-01
  2.2458193980E+04  2.1753440606E+00  2.5923111259E+00  1.7151846122E-01  1.4979635751E-01  7.4219442626E-01
  2.2555183946E+04  2.1894826198E+00  2.5902398639E+00  1.7384423870E-01  1.5162842954E-01  7.4341280330E-01
  2.2652173913E+04  2.2036688270E+00  2.5882027050E+00  1.7619137055E-01  1.5347300051E-01  7.4462870018E-01
  2.2749163880E+04  2.2178857495E+00  2.5861758420E+00  1.7855996016E-01  1.5532989282E-01  7.4584207974E-01
  2.2846153846E+04  2.2321333225E+00  2.5841591793E+00  1.8095011094E-01  1.5719908712E-01  7.4705290552E-01
  2.2943143813E+04  2.2464354505E+00  2.5821841774E+00  1.8336192639E-01  1.5908080312E-01  7.4826114169E-01
  2.3040133779E+04  2.2607859243E+00  2.5802420388E+00  1.8579551004E-01  1.6097496778E-01  7.4946675312E-01
  2.3137123746E+04  2.2751672097E+00  2.5783095103E+00  1.8825096549E-01  1.6288138700E-01  7.5066970454E-01
  2.3234113712E+04  2.2895792431E+00  2.5763865043E+00  1.9072839639E-01  1.6480003818E-01  7.5186995955E-01
  2.3331103679E+04  2.3040439043E+00  2.5745002218E+00  1.9322790644E-01  1.6673112716E-01  7.5306748223E-01
  2.3428093645E+04  2.3185605823E+00  2.5726493292E+00  1.9574959941E-01  1.6867463354E-01  7.5426223731E-01
  2.3525083612E+04  2.3331081824E+00  2.5708074057E+00  1.9829357910E-01  1.7063031565E-01  7.5545419024E-01
  2.3622073579E+04  2.3476866427E+00  2.5689743712E+00  2.0085994938E-01  1.7259814767E-01  7.5664330713E-01
  2.3719063545E+04  2.3623124844E+00  2.5671696509E+00  2.0344881418E-01  1.7457828366E-01  7.5782955479E-01
  2.3816053512E+04  2.3769973616E+00  2.5654064500E+00  2.0606027746E-01  1.7657083307E-01  7.5901290070E-01
  2.3913043478E+04  2.3917132859E+00  2.5636516189E+00  2.0869444326E-01  1.7857546753E-01  7.6019331302E-01
  2.4010033445E+04  2.4064601966E+00  2.5619050839E+00  2.1135141566E-01  1.8059215808E-01  7.6137076057E-01
  2.4107023411E+04  2.4212455324E+00  2.5601751247E+00  2.1403129878E-01  1.8262096005E-01  7.6254521286E-01
  2.4204013378E+04  2.4361006595E+00  2.5584962654E+00  2.1673419682E-01  1.8466220790E-01  7.6371664005E-01
  2.4301003344E+04  2.4509869725E+00  2.5568252146E+00  2.1946021402E-01  1.8671543856E-01  7.6488501297E-01
  2.4397993311E+04  2.4659044120E+00  2.5551619049E+00  2.2220945466E-01  1.8878061998E-01  7.6605030308E-01
  2.4494983278E+04  2.4808529190E+00  2.5535062698E+00  2.2498202309E-01  1.9085771928E-01  7.6721248253E-01
  2.4591973244E+04  2.4958746859E+00  2.5519025584E+00  2.2777802371E-01  1.9294720857E-01  7.6837152410E-01
  2.4688963211E+04  2.5109335049E+00  2.5503121621E+00  2.3059756096E-01  1.9504863465E-01  7.6952740120E-01
  2.4785953177E+04  2.5260236043E+00  2.5487289867E+00  2.3344073935E-01  1.9716189495E-01  7.7068008790E-01
  2.4882943144E+04  2.5411449262E+00  2.5471529714E+00  2.3630766342E-01  1.9928695358E-01  7.7182955891E-01
  2.4979933110E+04  2.5563234103E+00  2.5456099595E+00  2.3919843777E-01  2.0142409742E-01  7.7297578954E-01
  2.5076923077E+04  2.5715568448E+00  2.5440972525E+00  2.4212325379E-01  2.0358040516E-01  7.7411875576E-01
  2.5173913043E+04  2.5868217268E+00  2.5425912787E+00  2.4507499365E-01  2.0575039541E-01  7.7525843414E-01
  2.5270903010E+04  2.6021179995E+00  2.5410919822E+00  2.4805115987E-01  2.0793218229E-01  7.7639480180E-01
  2.5367892977E+04  2.6174503764E+00  2.5396038543E+00  2.5105185970E-01  2.1012578790E-01  7.7752783508E-01
  2.5464882943E+04  2.6328601931E+00  2.5381659533E+00  2.5407720040E-01  2.1233171750E-01  7.7865750961E-01
  2.5561872910E+04  2.6483016342E+00  2.5367343279E+00  2.5712728931E-01  2.1454934392E-01  7.7978380163E-01
  2.5658862876E+04  2.6637746442E+00  2.5353089273E+00  2.6020223383E-01  2.1677862531E-01  7.8090668801E-01
  2.5755852843E+04  2.6792791680E+00  2.5338897009E+00  2.6330214140E-01  2.1901951902E-01  7.8202614628E-01
  2.5852842809E+04  2.6948456328E+00  2.5325043011E+00  2.6642711952E-01  2.2127239859E-01  7.8314215458E-01
  2.5949832776E+04  2.7104652763E+00  2.5311442917E+00  2.6957727577E-01  2.2353711435E-01  7.8425469171E-01
  2.6046822742E+04  2.7261166752E+00  2.5297900822E+00  2.7275271775E-01  2.2581333284E-01  7.8536373706E-01
  2.6143812709E+04  2.7417997757E+00  2.5284416264E+00  2.7595355315E-01  2.2810100860E-01  7.8646927065E-01
  2.6240802676E+04  2.7575146358E+00  2.5270989765E+00  2.7917988969E-01  2.3040009703E-01  7.8757127313E-01
  2.6337792642E+04  2.7733141435E+00  2.5258079936E+00  2.8243183516E-01  2.3271131364E-01  7.8866972573E-01
  2.6434782609E+04  2.7891456018E+00  2.5245224119E+00  2.8570949739E-01  2.3503387049E-01  7.8976461029E-01
  2.6531772575E+04  2.8050089575E+00  2.5232421892E+00  2.8901298429E-01  2.3736771946E-01  7.9085590927E-01
  2.6628762542E+04  2.8209041581E+00  2.5219672836E+00  2.9234240380E-01  2.3971281163E-01  7.9194360567E-01
  2.6725752508E+04  2.8368494832E+00  2.5207129259E+00  2.9569786393E-01  2.4206937170E-01  7.9302768313E-01
  2.6822742475E+04  2.8528626883E+00  2.5194935406E+00  2.9907947274E-01  2.4443762822E-01  7.9410812583E-01
  2.6919732441E+04  2.8689079953E+00  2.5182791433E+00  3.0248733835E-01  2.4681700192E-01  7.9518491853E-01
  2.7016722408E+04  2.8849853525E+00  2.5170696957E+00  3.0592156892E-01  2.4920744132E-01  7.9625804655E-01
  2.7113712375E+04  2.9010947085E+00  2.5158651601E+00  3.0938227268E-01  2.5160889424E-01  7.9732749580E-01
  2.7210702341E+04  2.9172689423E+00  2.5146917087E+00  3.1286955791E-01  2.5402182490E-01  7.9839325270E-01
  2.7307692308E+04  2.9334979126E+00  2.5135408507E+00  3.1638353293E-01  2.5644603668E-01  7.9945530412E-01
  2.7404682274E+04  2.9497591465E+00  2.5123945969E+00  3.1992430614E-01  2.5888112740E-01  8.0051363582E-01
  2.7501672241E+04  2.9660525937E+00  2.5112529127E+00  3.2349198597E-01  2.6132704243E-01  8.0156823315E-01
  2.7598662207E+04  2.9823782040E+00  2.5101157639E+00  3.2708668091E-01  2.6378372645E-01  8.0261908201E-01
  2.7695652174E+04  2.9987794607E+00  2.5090162424E+00  3.3070849951E-01  2.6625183967E-01  8.0366616890E-01
  2.7792642140E+04  3.0152263061E+00  2.5079310302E+00  3.3435755037E-01  2.6873084949E-01  8.0470948087E-01
  2.7889632107E+04  3.0317055872E+00  2.5068500656E+00  3.3803394214E-01  2.7122048567E-01  8.0574900556E-01
  2.7986622074E+04  3.0482172549E+00  2.5057733171E+00  3.4173778352E-01  2.7372069059E-01  8.0678473114E-01
  2.8083612040E+04  3.0647612601E+00  2.5047007538E+00  3.4546918326E-01  2.7623140596E-01  8.0781664635E-01
  2.8180602007E+04  3.0813873107E+00  2.5036685653E+00  3.4922825019E-01  2.7875342904E-01  8.0884474049E-01
  2.8277591973E+04  3.0980541817E+00  2.5026462915E+00  3.5301509315E-01  2.8128601107E-01  8.0986900337E-01
  2.8374581940E+04  3.1147536705E+00  2.5016279334E+00  3.5682982106E-01  2.8382895338E-01  8.1088942536E-01
  2.8471571906E+04  3.1314857291E+00  2.5006134626E+00  3.6067254290E-01  2.8638219551E-01  8.1190599733E-01
  2.8568561873E+04  3.1482503098E+00  2.4996028510E+00  3.6454336766E-01  2.8894567640E-01  8.1291871069E-01
  2.8665551839E+04  3.1650985686E+00  2.4986317511E+00  3.6844240443E-01  2.9152025444E-01  8.1392755736E-01
  2.8762541806E+04  3.1819876540E+00  2.4976698691E+00  3.7236976232E-01  2.9410511830E-01  8.1493252975E-01
  2.8859531773E+04  3.1989095493E+00  2.4967115936E+00  3.7632555050E-01  2.9670006372E-01  8.1593362078E-01
  2.8956521739E+04  3.2158642076E+00  2.4957568990E+00  3.8030987820E-01  2.9930502759E-01  8.1693082388E-01
  2.9053511706E+04  3.2328515823E+00  2.4948057601E+00  3.8432285469E-01  3.0191994627E-01  8.1792413292E-01
  2.9150501672E+04  3.2499190928E+00  2.4938898324E+00  3.8836458930E-01  3.0454564475E-01  8.1891354229E-01
  2.9247491639E+04  3.2670326183E+00  2.4929859437E+00  3.9243519140E-01  3.0718143971E-01  8.1989904593E-01
  2.9344481605E+04  3.2841791554E+00  2.4920853735E+00  3.9653477041E-01  3.0982702575E-01  8.2088063671E-01
  2.9441471572E+04  3.3013586585E+00  2.4911880987E+00  4.0066343581E-01  3.1248233735E-01  8.2185830779E-01
  2.9538461538E+04  3.3185710820E+00  2.4902940964E+00  4.0482129713E-01  3.1514730841E-01  8.2283205289E-01
  2.9635451505E+04  3.3358545030E+00  2.4894277298E+00  4.0900846395E-01  3.1782261585E-01  8.2380186621E-01
  2.9732441472E+04  3.3531947287E+00  2.4885795735E+00  4.1322504589E-01  3.2050793510E-01  8.2476774246E-01
  2.9829431438E+04  3.3705681775E+00  2.4877344670E+00  4.1747115263E-01  3.2320274416E-01  8.2572967683E-01
  2.9926421405E+04  3.3879748046E+00  2.4868923895E+00  4.2174689390E-01  3.2590697522E-01  8.2668766500E-01
  3.0023411371E+04  3.4054145657E+00  2.4860533203E+00  4.2606142803E-01  3.2862594318E-01  8.2764170312E-01
  3.0120401338E+04  3.4229101159E+00  2.4852311882E+00  4.3043465445E-01  3.3137170833E-01  8.2859178781E-01
  3.0217391304E+04  3.4404792184E+00  2.4844366294E+00  4.3483849278E-01  3.3412774061E-01  8.2953791615E-01
  3.0314381271E+04  3.4580817641E+00  2.4836448696E+00  4.3927305803E-01  3.3689316355E-01  8.3048008568E-01
  3.0411371237E+04  3.4757177093E+00  2.4828558902E+00  4.4373846523E-01  3.3966790583E-01  8.3141829439E-01
  3.0508361204E+04  3.4933870105E+00  2.4820696724E+00  4.4823482951E-01  3.4245189568E-01  8.3235254068E-01
  3.0605351171E+04  3.5110904945E+00  2.4812867141E+00  4.5276226603E-01  3.4524507923E-01  8.3328282342E-01
  3.0702341137E+04  3.5288903876E+00  2.4805437334E+00  4.5732089003E-01  3.4804871337E-01  8.3420914189E-01
  3.0799331104E+04  3.5467239504E+00  2.4798033175E+00  4.6191081681E-01  3.5086141090E-01  8.3513149578E-01
  3.0896321070E+04  3.5645911403E+00  2.4790654496E+00  4.6653216173E-01  3.5368309854E-01  8.3604988519E-01
  3.0993311037E+04  3.5824919148E+00  2.4783301129E+00  4.7118504019E-01  3.5651370253E-01  8.3696431016E-01
  3.1090301003E+04  3.6004262317E+00  2.4775972909E+00  4.7586956769E-01  3.5935314870E-01  8.3787476945E-01
  3.1187290970E+04  3.6184312839E+00  2.4768882043E+00  4.8058585974E-01  3.6220218965E-01  8.3878126194E-01
