#[MATERIAL DEFINITION FOR MC-GPU: interaction mean free path and sampling data from PENELOPE 2006]
#[MATERIAL NAME]
# AmalgamTooth_28                                               
#[NOMINAL DENSITY (g/cm^3)]
#   2.08808000
#[NUMBER OF DATA VALUES]
#   1495
#[MEAN FREE PATHS (cm) (ie, average distance between interactions)]
#[Energy (eV)     | Rayleigh        | Compton         | Photoelectric   | TOTAL (+pair prod) (cm) | Rayleigh: max cumul prob F^2]
  5.0000000000E+03  1.0618423689E-01  9.3535081832E+00  6.5529333888E-04  6.5122879531E-04  1.4839788459E-01
  5.0969899666E+03  1.0757166286E-01  9.2574313116E+00  6.8868271772E-04  6.8425118174E-04  1.5211440521E-01
  5.1939799331E+03  1.0896853652E-01  9.1641397725E+00  7.2309552672E-04  7.1827252476E-04  1.5582293669E-01
  5.2909698997E+03  1.1037488019E-01  9.0735272321E+00  7.5854313894E-04  7.5330314340E-04  1.5952271177E-01
  5.3879598662E+03  1.1179070456E-01  8.9854925159E+00  7.9503683977E-04  7.8935324914E-04  1.6321303769E-01
  5.4849498328E+03  1.1321600904E-01  8.8999392412E+00  8.3258782914E-04  8.2643294830E-04  1.6689329177E-01
  5.5819397993E+03  1.1465078205E-01  8.8167754819E+00  8.7120722374E-04  8.6455224420E-04  1.7056291011E-01
  5.6789297659E+03  1.1609500134E-01  8.7359134635E+00  9.1090605904E-04  9.0372103939E-04  1.7422129006E-01
  5.7759197324E+03  1.1754863424E-01  8.6572692838E+00  9.5169529134E-04  9.4394913757E-04  1.7786782866E-01
  5.8729096990E+03  1.1901163785E-01  8.5807626580E+00  9.9358579961E-04  9.8524624555E-04  1.8150198037E-01
  5.9698996656E+03  1.2048395932E-01  8.5063166774E+00  1.0365883874E-03  1.0276219751E-03  1.8512325281E-01
  6.0668896321E+03  1.2196553662E-01  8.4338572717E+00  1.0812127919E-03  1.0715759983E-03  1.8873120354E-01
  6.1638795987E+03  1.2345629999E-01  8.3633124978E+00  1.1272367163E-03  1.1168882583E-03  1.9232540701E-01
  6.2608695652E+03  1.2495617183E-01  8.2946125338E+00  1.1744549325E-03  1.1633559035E-03  1.9590541225E-01
  6.3578595318E+03  1.2646506496E-01  8.2276903758E+00  1.2228792027E-03  1.2109893107E-03  1.9947080460E-01
  6.4548494983E+03  1.2798391084E-01  8.1624953069E+00  1.2725212216E-03  1.2597988651E-03  2.0302121011E-01
  6.5518394649E+03  1.2951290563E-01  8.0989712849E+00  1.3233926171E-03  1.3097948091E-03  2.0655629320E-01
  6.6488294314E+03  1.3105091122E-01  8.0370463240E+00  1.3755049525E-03  1.3609871605E-03  2.1007573609E-01
  6.7458193980E+03  1.3259780684E-01  7.9766636772E+00  1.4288697271E-03  1.4133859437E-03  2.1357920950E-01
  6.8428093645E+03  1.3415346242E-01  7.9177687046E+00  1.4834983778E-03  1.4670010963E-03  2.1706641191E-01
  6.9397993311E+03  1.3571773866E-01  7.8603087449E+00  1.5394022804E-03  1.5218424697E-03  2.2053707316E-01
  7.0367892977E+03  1.3729061031E-01  7.8042348686E+00  1.5968684784E-03  1.5781891623E-03  2.2399095390E-01
  7.1337792642E+03  1.3887565247E-01  7.7495541590E+00  1.6561135594E-03  1.6362513360E-03  2.2742783693E-01
  7.2307692308E+03  1.4046916283E-01  7.6961639938E+00  1.7167117519E-03  1.6956110056E-03  2.3084748250E-01
  7.3277591973E+03  1.4207096451E-01  7.6440165711E+00  1.7786751817E-03  1.7562785669E-03  2.3424966844E-01
  7.4247491639E+03  1.4368087232E-01  7.5930660604E+00  1.8420159192E-03  1.8182643310E-03  2.3763419722E-01
  7.5217391304E+03  1.4530094157E-01  7.5433019246E+00  1.9067459810E-03  1.8815789036E-03  2.4100089449E-01
  7.6187290970E+03  1.4693183750E-01  7.4946949544E+00  1.9728773300E-03  1.9462326330E-03  2.4434960783E-01
  7.7157190635E+03  1.4857057910E-01  7.4471633988E+00  2.0404218769E-03  2.0122351434E-03  2.4768020539E-01
  7.8127090301E+03  1.5021695248E-01  7.4006682760E+00  2.1093914809E-03  2.0795964231E-03  2.5099257478E-01
  7.9096989967E+03  1.5187437042E-01  7.3552253295E+00  2.1797979508E-03  2.1483271090E-03  2.5428661037E-01
  8.0066889632E+03  1.5354180500E-01  7.3107867792E+00  2.2517036363E-03  2.2184860614E-03  2.5756219048E-01
  8.1036789298E+03  1.5521653463E-01  7.2672808433E+00  2.3257734726E-03  2.2907161444E-03  2.6081921239E-01
  8.2006688963E+03  1.5689947580E-01  7.2246902615E+00  2.4013548453E-03  2.3643819757E-03  2.6405758974E-01
  8.2976588629E+03  1.5859528159E-01  7.1830500769E+00  2.4784601720E-03  2.4394950420E-03  2.6727725140E-01
  8.3946488294E+03  1.6029796919E-01  7.1422470604E+00  2.5571018246E-03  2.5160643041E-03  2.7047814060E-01
  8.4916387960E+03  1.6200752969E-01  7.1022546488E+00  2.6372921299E-03  2.5940999607E-03  2.7366021401E-01
  8.5886287625E+03  1.6373119527E-01  7.0631439359E+00  2.7190433702E-03  2.6736140836E-03  2.7682344111E-01
  8.6856187291E+03  1.6546128518E-01  7.0247858505E+00  2.8023677840E-03  2.7546148185E-03  2.7996780261E-01
  8.7826086957E+03  1.6719848375E-01  6.9871663354E+00  2.8872775664E-03  2.8371123448E-03  2.8309327251E-01
  8.8795986622E+03  1.6894939146E-01  6.9503474400E+00  2.9737848704E-03  2.9211185849E-03  2.8619982994E-01
  8.9765886288E+03  1.7070622593E-01  6.9142063240E+00  2.8835525115E-03  2.8344904646E-03  2.8928746451E-01
  9.0735785953E+03  1.7247202451E-01  6.8787608124E+00  2.9658678382E-03  2.9144929384E-03  2.9235617571E-01
  9.1705685619E+03  1.7424944505E-01  6.8440225566E+00  3.0518409603E-03  2.9979965790E-03  2.9540597229E-01
  9.2675585284E+03  1.7603224673E-01  6.8098951053E+00  3.1393298513E-03  3.0829282062E-03  2.9843687175E-01
  9.3645484950E+03  1.7782750525E-01  6.7764447730E+00  3.2286462605E-03  3.1695888705E-03  3.0144889978E-01
  9.4615384615E+03  1.7963056330E-01  6.7435969311E+00  3.3195435489E-03  3.2577374661E-03  3.0444208977E-01
  9.5585284281E+03  1.8144068663E-01  6.7113261493E+00  3.4120321913E-03  3.3473821249E-03  3.0741648230E-01
  9.6555183946E+03  1.8326390628E-01  6.6796840705E+00  3.3967427230E-03  3.3332665775E-03  3.1037212477E-01
  9.7525083612E+03  1.8509163227E-01  6.6485570648E+00  3.4891653013E-03  3.4228448877E-03  3.1330907087E-01
  9.8494983278E+03  1.8693250691E-01  6.6180257542E+00  3.5831494645E-03  3.5138921676E-03  3.1622738025E-01
  9.9464882943E+03  1.8877997761E-01  6.5880025019E+00  3.6787057991E-03  3.6064147401E-03  3.1912711662E-01
  1.0043478261E+04  1.9063656701E-01  6.5585005390E+00  3.7762822214E-03  3.7008420822E-03  3.2200833655E-01
  1.0140468227E+04  1.9250362618E-01  6.5295202288E+00  3.8760201937E-03  3.7973080529E-03  3.2487110456E-01
  1.0237458194E+04  1.9437622829E-01  6.5009965896E+00  3.9774039019E-03  3.8953132398E-03  3.2771549142E-01
  1.0334448161E+04  1.9626266820E-01  6.4730037460E+00  4.0805136758E-03  3.9949362535E-03  3.3054157215E-01
  1.0431438127E+04  1.9815231120E-01  6.4454194064E+00  4.1853569259E-03  4.0961779223E-03  3.3334942574E-01
  1.0528428094E+04  2.0005713364E-01  6.4183548225E+00  4.2918852072E-03  4.1989950931E-03  3.3613913485E-01
  1.0625418060E+04  2.0196556490E-01  6.3916808265E+00  4.4002159318E-03  4.3034932435E-03  3.3891078560E-01
  1.0722408027E+04  2.0388702721E-01  6.3654816291E+00  4.5103535493E-03  4.4096788550E-03  3.4166446728E-01
  1.0819397993E+04  2.0581398916E-01  6.3396713972E+00  4.6222182764E-03  4.5174702212E-03  3.4440027214E-01
  1.0916387960E+04  2.0775233085E-01  6.3142981584E+00  4.7358213362E-03  4.6268790161E-03  3.4711829518E-01
  1.1013377926E+04  2.0969755275E-01  6.2893079698E+00  4.8511739234E-03  4.7379118509E-03  3.4981863391E-01
  1.1110367893E+04  2.1165300449E-01  6.2647237563E+00  4.9682872046E-03  4.8505791898E-03  3.5250138817E-01
  1.1207357860E+04  2.1361620284E-01  6.2405125217E+00  5.0871951445E-03  4.9649102061E-03  3.5516665995E-01
  1.1304347826E+04  2.1558898680E-01  6.2166826972E+00  5.2079471256E-03  5.0809509406E-03  3.5781455321E-01
  1.1401337793E+04  2.1756986565E-01  6.1932117543E+00  5.3304964640E-03  5.1986541266E-03  3.6044517369E-01
  1.1498327759E+04  2.1956019582E-01  6.1701038006E+00  5.4548542710E-03  5.3180291602E-03  3.6305862879E-01
  1.1595317726E+04  2.2155844718E-01  6.1473367277E+00  5.5810316316E-03  5.4390837181E-03  3.6565502739E-01
  1.1692307692E+04  2.2356652964E-01  6.1249200828E+00  5.7090396046E-03  5.5618274850E-03  3.6823447971E-01
  1.1789297659E+04  2.2558183379E-01  6.1028225298E+00  5.8388892230E-03  5.6862673194E-03  3.7079709720E-01
  1.1886287625E+04  2.2760786695E-01  6.0810684402E+00  5.9706707954E-03  5.8124890517E-03  3.7334299238E-01
  1.1983277592E+04  2.2963989277E-01  6.0596079754E+00  6.1043597504E-03  5.9404641312E-03  3.7587227875E-01
  1.2080267559E+04  2.3168406764E-01  6.0384893624E+00  6.2399279001E-03  6.0701679050E-03  3.7838507066E-01
  1.2177257525E+04  2.3373247293E-01  6.0176353317E+00  6.3773862478E-03  6.2016032640E-03  3.8088148318E-01
  1.2274247492E+04  2.3579497333E-01  5.9971266688E+00  6.5167457724E-03  6.3347854930E-03  3.8336163207E-01
  1.2371237458E+04  2.3785940513E-01  5.9768500688E+00  6.6580174284E-03  6.4697140320E-03  3.8582563359E-01
  1.2468227425E+04  2.3994040754E-01  5.9569272879E+00  6.8012121467E-03  6.6064079788E-03  3.8827360448E-01
  1.2565217391E+04  2.4202327941E-01  5.9372245266E+00  6.9473046519E-03  6.7457730902E-03  3.9070566187E-01
  1.2662207358E+04  2.4412016626E-01  5.9178416075E+00  7.0958530054E-03  6.8873982477E-03  3.9312192314E-01
  1.2759197324E+04  2.4622181353E-01  5.8986928130E+00  7.2464072400E-03  7.0308492761E-03  3.9552250593E-01
  1.2856187291E+04  2.4833400983E-01  5.8798236814E+00  7.3989788751E-03  7.1761394224E-03  3.9790752798E-01
  1.2953177258E+04  2.5045456432E-01  5.8612094887E+00  7.5535794081E-03  7.3232754264E-03  4.0027710714E-01
  1.3050167224E+04  2.5258166799E-01  5.8428306834E+00  7.7102203145E-03  7.4722641465E-03  4.0263136126E-01
  1.3147157191E+04  2.5472125338E-01  5.8247328063E+00  7.8689130484E-03  7.6231192891E-03  4.0497040814E-01
  1.3244147157E+04  2.5686303680E-01  5.8068233935E+00  8.0296690426E-03  7.7758399131E-03  4.0729436549E-01
  1.3341137124E+04  2.5902158887E-01  5.7892229355E+00  8.1924997085E-03  7.9304478454E-03  4.0960335085E-01
  1.3438127090E+04  2.6118263022E-01  5.7718042737E+00  8.3574164369E-03  8.0869379972E-03  4.1189748155E-01
  1.3535117057E+04  2.6335526630E-01  5.7546418279E+00  8.5244305973E-03  8.2453273124E-03  4.1417687469E-01
  1.3632107023E+04  2.6553567406E-01  5.7376978745E+00  8.6935535392E-03  8.4056203092E-03  4.1644164706E-01
  1.3729096990E+04  2.6772196905E-01  5.7209531034E+00  8.8648856672E-03  8.5679063518E-03  4.1869191510E-01
  1.3826086957E+04  2.6992184525E-01  5.7044686172E+00  9.0385055653E-03  8.7322641877E-03  4.2092779490E-01
  1.3923076923E+04  2.7212423011E-01  5.6881463686E+00  9.2142761641E-03  8.8985514764E-03  4.2314940212E-01
  1.4020066890E+04  2.7434080925E-01  5.6720824370E+00  9.3922088399E-03  9.0667889343E-03  4.2535685028E-01
  1.4117056856E+04  2.7656286321E-01  5.6561982696E+00  9.5723149492E-03  9.2369751275E-03  4.2755025568E-01
  1.4214046823E+04  2.7879222062E-01  5.6405066889E+00  9.7546058297E-03  9.4091200041E-03  4.2972973199E-01
  1.4311036789E+04  2.8103403161E-01  5.6250471505E+00  9.9390927994E-03  9.5832375865E-03  4.3189539496E-01
  1.4408026756E+04  2.8327854460E-01  5.6097339763E+00  1.0125787158E-02  9.7593243043E-03  4.3404735940E-01
  1.4505016722E+04  2.8553737340E-01  5.5946623434E+00  1.0314700185E-02  9.9374020104E-03  4.3618573925E-01
  1.4602006689E+04  2.8780182711E-01  5.5797548710E+00  1.0505843143E-02  1.0117468040E-02  4.3831064753E-01
  1.4698996656E+04  2.9007251690E-01  5.5650143955E+00  1.0699227276E-02  1.0299530795E-02  4.4042219637E-01
  1.4795986622E+04  2.9235698585E-01  5.5505007048E+00  1.0894863807E-02  1.0483607811E-02  4.4252049698E-01
  1.4892976589E+04  2.9464434369E-01  5.5361193255E+00  1.1092763944E-02  1.0669692640E-02  4.4460565964E-01
  1.4989966555E+04  2.9694363416E-01  5.5219437246E+00  1.1292938875E-02  1.0857804927E-02  4.4667779373E-01
  1.5086956522E+04  2.9925117499E-01  5.5079393156E+00  1.1496854379E-02  1.1049291041E-02  4.4873700771E-01
  1.5183946488E+04  3.0156168824E-01  5.4940598260E+00  1.1703279939E-02  1.1243001809E-02  4.5078340912E-01
  1.5280936455E+04  3.0388916375E-01  5.4804192366E+00  1.1912061853E-02  1.1438812190E-02  4.5281710458E-01
  1.5377926421E+04  3.0622002067E-01  5.4669010732E+00  1.2123211805E-02  1.1636710733E-02  4.5483819980E-01
  1.5474916388E+04  3.0855790203E-01  5.4535338779E+00  1.2336741461E-02  1.1836710416E-02  4.5684679956E-01
  1.5571906355E+04  3.1090915982E-01  5.4403672201E+00  1.2552662471E-02  1.2038828759E-02  4.5884300774E-01
  1.5668896321E+04  3.1326356824E-01  5.4273138105E+00  1.2770986469E-02  1.2243057976E-02  4.6082692728E-01
  1.5765886288E+04  3.1562868476E-01  5.4144343906E+00  1.2991725071E-02  1.2449417468E-02  4.6279866148E-01
  1.5862876254E+04  3.1800364068E-01  5.4017185312E+00  1.3214889879E-02  1.2657913763E-02  4.6475831431E-01
  1.5959866221E+04  3.2038182672E-01  5.3891097745E+00  1.3440492478E-02  1.2868543722E-02  4.6670598866E-01
  1.6056856187E+04  3.2277371600E-01  5.3766924348E+00  1.3668544437E-02  1.3081332240E-02  4.6864178637E-01
  1.6153846154E+04  3.2517258836E-01  5.3644081579E+00  1.3899057311E-02  1.3296275852E-02  4.7056580822E-01
  1.6250836120E+04  3.2757476910E-01  5.3522252320E+00  1.4132042637E-02  1.3513375561E-02  4.7247815397E-01
  1.6347826087E+04  3.2999295152E-01  5.3402455902E+00  1.4367511938E-02  1.3732661089E-02  4.7437892233E-01
  1.6444816054E+04  3.3241594979E-01  5.3283748887E+00  1.4605476721E-02  1.3954120325E-02  4.7626821101E-01
  1.6541806020E+04  3.3484246479E-01  5.3166012199E+00  1.4845948478E-02  1.4177757980E-02  4.7814611668E-01
  1.6638795987E+04  3.3728631308E-01  5.3050350322E+00  1.5088938686E-02  1.4403607018E-02  4.8001273506E-01
  1.6735785953E+04  3.3973363812E-01  5.2935610131E+00  1.5334458806E-02  1.4631649140E-02  4.8186816084E-01
  1.6832775920E+04  3.4218539689E-01  5.2821857862E+00  1.5582520287E-02  1.4861893065E-02  4.8371248776E-01
  1.6929765886E+04  3.4465368955E-01  5.2710052517E+00  1.5833134558E-02  1.5094369701E-02  4.8554580857E-01
  1.7026755853E+04  3.4712553383E-01  5.2599120505E+00  1.6086313039E-02  1.5329060932E-02  4.8736821509E-01
  1.7123745819E+04  3.4960201575E-01  5.2489138885E+00  1.6342067130E-02  1.5565975716E-02  4.8917979818E-01
  1.7220735786E+04  3.5209493807E-01  5.2381038012E+00  1.6600408222E-02  1.5805145488E-02  4.9098064687E-01
  1.7317725753E+04  3.5459148587E-01  5.2273765035E+00  1.6861347686E-02  1.6046551023E-02  4.9277084903E-01
  1.7414715719E+04  3.5709215598E-01  5.2167350063E+00  1.7124896884E-02  1.6290200000E-02  4.9455049524E-01
  1.7511705686E+04  3.5960988532E-01  5.2062810159E+00  1.7391285185E-02  1.6536324537E-02  4.9631967525E-01
  1.7608695652E+04  3.6213131303E-01  5.1959055420E+00  1.7661920134E-02  1.6786163452E-02  4.9807847776E-01
  1.7705685619E+04  3.6465642415E-01  5.1856075674E+00  1.7935245118E-02  1.7038304256E-02  4.9982699049E-01
  1.7802675585E+04  3.6719832988E-01  5.1754893442E+00  1.8211271916E-02  1.7292783920E-02  5.0156530015E-01
  1.7899665552E+04  3.6974480736E-01  5.1654519796E+00  1.8490012298E-02  1.7549581963E-02  5.0329349248E-01
  1.7996655518E+04  3.7229504030E-01  5.1554881652E+00  1.8771478017E-02  1.7808703199E-02  5.0501165226E-01
  1.8093645485E+04  3.7486004481E-01  5.1456827060E+00  1.9055680815E-02  1.8070180900E-02  5.0671986331E-01
  1.8190635452E+04  3.7743173503E-01  5.1359702669E+00  1.9342632421E-02  1.8334003022E-02  5.0841820853E-01
  1.8287625418E+04  3.8000725188E-01  5.1263276620E+00  1.9632344551E-02  1.8600169300E-02  5.1010676988E-01
  1.8384615385E+04  3.8259477699E-01  5.1168169901E+00  1.9924828907E-02  1.8868706982E-02  5.1178562842E-01
  1.8481605351E+04  3.8519183547E-01  5.1074170413E+00  2.0220097179E-02  1.9139617101E-02  5.1345486432E-01
  1.8578595318E+04  3.8779279090E-01  5.0980834269E+00  2.0518161045E-02  1.9412892000E-02  5.1511455684E-01
  1.8675585284E+04  3.9040224675E-01  5.0888504160E+00  2.0819032171E-02  1.9688550282E-02  5.1676478440E-01
  1.8772575251E+04  3.9302482168E-01  5.0797512207E+00  2.1122840443E-02  1.9966716932E-02  5.1840562454E-01
  1.8869565217E+04  3.9565136304E-01  5.0707150606E+00  2.1429543040E-02  2.0247325388E-02  5.2003715395E-01
  1.8966555184E+04  3.9828214876E-01  5.0617433752E+00  2.1739092177E-02  2.0530329526E-02  5.2165944849E-01
  1.9063545151E+04  4.0093038113E-01  5.0529338460E+00  2.2051499516E-02  2.0815772873E-02  5.2327258321E-01
  1.9160535117E+04  4.0358264861E-01  5.0441842394E+00  2.2366776702E-02  2.1103624890E-02  5.2487663232E-01
  1.9257525084E+04  4.0623893688E-01  5.0354938476E+00  2.2684935371E-02  2.1393891695E-02  5.2647166924E-01
  1.9354515050E+04  4.0890817674E-01  5.0269279337E+00  2.3005987146E-02  2.1686605746E-02  5.2805776661E-01
  1.9451505017E+04  4.1158630347E-01  5.0184545711E+00  2.3329943638E-02  2.1981762086E-02  5.2963499626E-01
  1.9548494983E+04  4.1426851900E-01  5.0100375302E+00  2.3656816448E-02  2.2279352803E-02  5.3120342928E-01
  1.9645484950E+04  4.1695784784E-01  5.0016983408E+00  2.3986617162E-02  2.2579393209E-02  5.3276313599E-01
  1.9742474916E+04  4.1966196000E-01  4.9934914641E+00  2.4319357357E-02  2.2881913616E-02  5.3431418596E-01
  1.9839464883E+04  4.2237022821E-01  4.9853381743E+00  2.4655048598E-02  2.3186887662E-02  5.3585664810E-01
  1.9936454849E+04  4.2508263848E-01  4.9772378622E+00  2.4993702437E-02  2.3494321177E-02  5.3739059242E-01
  2.0033444816E+04  4.2780922967E-01  4.9692619745E+00  2.5336085422E-02  2.3804919229E-02  5.3891608815E-01
  2.0130434783E+04  4.3054367145E-01  4.9613632973E+00  2.5682921551E-02  2.4119294496E-02  5.4043320349E-01
  2.0227424749E+04  4.3328232192E-01  4.9535150499E+00  2.6032804245E-02  2.4436187829E-02  5.4194200585E-01
  2.0324414716E+04  4.3602770745E-01  4.9457346349E+00  2.6385745463E-02  2.4755613793E-02  5.4344256187E-01
  2.0421404682E+04  4.3878844985E-01  4.9380816717E+00  2.6741757154E-02  2.5077608388E-02  5.4493493744E-01
  2.0518394649E+04  4.4155346696E-01  4.9304767279E+00  2.7100851255E-02  2.5402140344E-02  5.4641919769E-01
  2.0615384615E+04  4.4432274514E-01  4.9229192772E+00  2.7463039695E-02  2.5729215466E-02  5.4789540702E-01
  2.0712374582E+04  4.4710415452E-01  4.9154633494E+00  2.7828334389E-02  2.6058867824E-02  5.4936362912E-01
  2.0809364548E+04  4.4989566298E-01  4.9080933162E+00  2.8196747245E-02  2.6391096917E-02  5.5082392694E-01
  2.0906354515E+04  4.5269149807E-01  4.9007685274E+00  2.8568290158E-02  2.6725888024E-02  5.5227636274E-01
  2.1003344482E+04  4.5549164639E-01  4.8934884974E+00  2.8942975016E-02  2.7063246781E-02  5.5372099811E-01
  2.1100334448E+04  4.5830847844E-01  4.8863366248E+00  2.9320813693E-02  2.7403225689E-02  5.5515789393E-01
  2.1197324415E+04  4.6113098855E-01  4.8792366459E+00  2.9701818055E-02  2.7745789943E-02  5.5658711042E-01
  2.1294314381E+04  4.6395787701E-01  4.8721793255E+00  3.0085999958E-02  2.8090940253E-02  5.5800870715E-01
  2.1391304348E+04  4.6679146048E-01  4.8651797866E+00  3.0473371248E-02  2.8438691269E-02  5.5942274304E-01
  2.1488294314E+04  4.6964075777E-01  4.8582971542E+00  3.0863943760E-02  2.8789084810E-02  5.6082927635E-01
  2.1585284281E+04  4.7249449798E-01  4.8514551885E+00  3.1257729319E-02  2.9142082489E-02  5.6222836473E-01
  2.1682274247E+04  4.7535266805E-01  4.8446534681E+00  3.1654739742E-02  2.9497689659E-02  5.6362006521E-01
  2.1779264214E+04  4.7822032633E-01  4.8379247895E+00  3.2054986835E-02  2.9855932659E-02  5.6500443419E-01
  2.1876254181E+04  4.8110102403E-01  4.8312911808E+00  3.2458482393E-02  3.0216832501E-02  5.6638152748E-01
  2.1973244147E+04  4.8398621574E-01  4.8246959534E+00  3.2865238203E-02  3.0580359482E-02  5.6775140029E-01
  2.2070234114E+04  4.8687588858E-01  4.8181387171E+00  3.3275266041E-02  3.0946518791E-02  5.6911410726E-01
  2.2167224080E+04  4.8977695014E-01  4.8116635165E+00  3.3688577676E-02  3.1315345742E-02  5.7046970244E-01
  2.2264214047E+04  4.9268926286E-01  4.8052682137E+00  3.4105184865E-02  3.1686845987E-02  5.7181824011E-01
  2.2361204013E+04  4.9560612047E-01  4.7989091551E+00  3.4525101871E-02  3.2060997944E-02  5.7315977414E-01
  2.2458193980E+04  4.9852751028E-01  4.7925859796E+00  3.4948824452E-02  3.2438223608E-02  5.7449435769E-01
  2.2555183946E+04  5.0146127961E-01  4.7863478237E+00  3.5375887599E-02  3.2818152396E-02  5.7582204334E-01
  2.2652173913E+04  5.0440541508E-01  4.7801807705E+00  3.5806303113E-02  3.3200781307E-02  5.7714288306E-01
  2.2749163880E+04  5.0735414611E-01  4.7740479616E+00  3.6240082785E-02  3.3586089244E-02  5.7845692829E-01
  2.2846153846E+04  5.1030746021E-01  4.7679490622E+00  3.6677238398E-02  3.3974081113E-02  5.7976422990E-01
  2.2943143813E+04  5.1327321868E-01  4.7619323940E+00  3.7117781725E-02  3.4364799601E-02  5.8106483821E-01
  2.3040133779E+04  5.1624937780E-01  4.7559841449E+00  3.7561724530E-02  3.4758240980E-02  5.8235880298E-01
  2.3137123746E+04  5.1923018295E-01  4.7500682666E+00  3.8009078568E-02  3.5154382777E-02  5.8364617346E-01
  2.3234113712E+04  5.2221562185E-01  4.7441844481E+00  3.8459855585E-02  3.5553229737E-02  5.8492699838E-01
  2.3331103679E+04  5.2521262854E-01  4.7383745214E+00  3.8914067318E-02  3.5954821539E-02  5.8620132593E-01
  2.3428093645E+04  5.2822100548E-01  4.7326361955E+00  3.9371725496E-02  3.6359163093E-02  5.8746920379E-01
  2.3525083612E+04  5.3123407871E-01  4.7269284830E+00  3.9832841838E-02  3.6766225871E-02  5.8873067917E-01
  2.3622073579E+04  5.3425183615E-01  4.7212510953E+00  4.0297428055E-02  3.7176014459E-02  5.8998579876E-01
  2.3719063545E+04  5.3727932872E-01  4.7156339151E+00  4.0765689631E-02  3.7588724849E-02  5.9123460876E-01
  2.3816053512E+04  5.4032011097E-01  4.7100971531E+00  4.1237503641E-02  3.8004266608E-02  5.9247715490E-01
  2.3913043478E+04  5.4336563956E-01  4.7045893549E+00  4.1712827379E-02  3.8422553423E-02  5.9371348243E-01
  2.4010033445E+04  5.4641590261E-01  4.6991102524E+00  4.2191672559E-02  3.8843589740E-02  5.9494363615E-01
  2.4107023411E+04  5.4947309813E-01  4.6936725198E+00  4.2674050884E-02  3.9267392148E-02  5.9616766038E-01
  2.4204013378E+04  5.5254646654E-01  4.6883294461E+00  4.3159974050E-02  3.9694017008E-02  5.9738559901E-01
  2.4301003344E+04  5.5562463116E-01  4.6830137862E+00  4.3649453746E-02  4.0123406643E-02  5.9859749538E-01
  2.4397993311E+04  5.5870758027E-01  4.6777252909E+00  4.4142501650E-02  4.0555565342E-02  5.9980339222E-01
  2.4494983278E+04  5.6179530225E-01  4.6724637142E+00  4.4639129433E-02  4.0990497346E-02  6.0100333253E-01
  2.4591973244E+04  5.6489980494E-01  4.6672975410E+00  4.5139348758E-02  4.1428276908E-02  6.0219735895E-01
  2.4688963211E+04  5.6801077967E-01  4.6621666843E+00  4.5643171277E-02  4.1868849767E-02  6.0338551371E-01
  2.4785953177E+04  5.7112658872E-01  4.6570615520E+00  4.6150608638E-02  4.2312210678E-02  6.0456783858E-01
  2.4882943144E+04  5.7424722065E-01  4.6519819151E+00  4.6661672476E-02  4.2758363724E-02  6.0574437489E-01
  2.4979933110E+04  5.7737982140E-01  4.6469677975E+00  4.7176374423E-02  4.3207356504E-02  6.0691516357E-01
  2.5076923077E+04  5.8052377577E-01  4.6420148205E+00  4.7697289439E-02  4.3661338578E-02  6.0808024511E-01
  2.5173913043E+04  5.8367261409E-01  4.6370862118E+00  4.8222586860E-02  4.4118726141E-02  6.0923965958E-01
  2.5270903010E+04  5.8682632508E-01  4.6321817584E+00  4.8751616041E-02  4.4578967452E-02  6.1039344666E-01
  2.5367892977E+04  5.8998618004E-01  4.6273083402E+00  4.9284389017E-02  4.5042074735E-02  6.1154164562E-01
  2.5464882943E+04  5.9316329015E-01  4.6225267122E+00  4.9820917817E-02  4.5508123669E-02  6.1268429534E-01
  2.5561872910E+04  5.9634533372E-01  4.6177681748E+00  1.2183828484E-02  1.1909094090E-02  6.1382143430E-01
  2.5658862876E+04  5.9953229963E-01  4.6130325294E+00  1.2294672937E-02  1.2016229140E-02  6.1495310060E-01
  2.5755852843E+04  6.0272417686E-01  4.6083195801E+00  1.2406098052E-02  1.2123908216E-02  6.1607933196E-01
  2.5852842809E+04  6.0592898547E-01  4.6036725118E+00  1.2518104637E-02  1.2232135468E-02  6.1720016573E-01
  2.5949832776E+04  6.0914440970E-01  4.5990779463E+00  1.2630693500E-02  1.2340910513E-02  6.1831563887E-01
  2.6046822742E+04  6.1236480587E-01  4.5945050812E+00  1.2748556598E-02  1.2454708853E-02  6.1942578802E-01
  2.6143812709E+04  6.1559016311E-01  4.5899537339E+00  1.2876108133E-02  1.2577739379E-02  6.2053064942E-01
  2.6240802676E+04  6.1882049952E-01  4.5854238775E+00  1.3004455951E-02  1.2701512799E-02  6.2163025898E-01
  2.6337792642E+04  6.2206947416E-01  4.5809875086E+00  1.3133602048E-02  1.2826037038E-02  6.2272465225E-01
  2.6434782609E+04  6.2532347023E-01  4.5765717154E+00  1.3263548418E-02  1.2951307414E-02  6.2381386443E-01
  2.6531772575E+04  6.2858247702E-01  4.5721763274E+00  1.3394297053E-02  1.3077325468E-02  6.2489793041E-01
  2.6628762542E+04  6.3184648390E-01  4.5678011763E+00  1.3521974154E-02  1.3200399127E-02  6.2597688471E-01
  2.6725752508E+04  6.3512012227E-01  4.5634702154E+00  1.3649564784E-02  1.3323377050E-02  6.2705076155E-01
  2.6822742475E+04  6.3840788222E-01  4.5592060835E+00  1.3777889338E-02  1.3447043216E-02  6.2811959480E-01
  2.6919732441E+04  6.4170070245E-01  4.5549613057E+00  1.3906949353E-02  1.3571394434E-02  6.2918341802E-01
  2.7016722408E+04  6.4499857247E-01  4.5507357248E+00  1.4036746359E-02  1.3696431856E-02  6.3024226446E-01
  2.7113712375E+04  6.4830148187E-01  4.5465291855E+00  1.4167281887E-02  1.3822156630E-02  6.3129616704E-01
  2.7210702341E+04  6.5161759517E-01  4.5423830982E+00  1.4298557463E-02  1.3948574036E-02  6.3234515839E-01
  2.7307692308E+04  6.5494438704E-01  4.5382838555E+00  1.4430574611E-02  1.4075684038E-02  6.3338927082E-01
  2.7404682274E+04  6.5827627833E-01  4.5342028262E+00  1.4563341522E-02  1.4203491318E-02  6.3442853635E-01
  2.7501672241E+04  6.6161325874E-01  4.5301398654E+00  1.4696881442E-02  1.4332017666E-02  6.3546298670E-01
  2.7598662207E+04  6.6495531807E-01  4.5260948296E+00  1.4831167940E-02  1.4461237621E-02  6.3649265329E-01
  2.7695652174E+04  6.6831304304E-01  4.5221203251E+00  1.4968307375E-02  1.4593158573E-02  6.3751756727E-01
  2.7792642140E+04  6.7167910804E-01  4.5181790816E+00  1.5108896282E-02  1.4728341831E-02  6.3853775948E-01
  2.7889632107E+04  6.7505031180E-01  4.5142549854E+00  1.5250308422E-02  1.4864288476E-02  6.3955326050E-01
  2.7986622074E+04  6.7842664428E-01  4.5103479024E+00  1.5392545723E-02  1.5000999964E-02  6.4056410062E-01
  2.8083612040E+04  6.8180809545E-01  4.5064577005E+00  1.5535610111E-02  1.5138477743E-02  6.4157031023E-01
  2.8180602007E+04  6.8520653351E-01  4.5026421631E+00  1.5679503507E-02  1.5276729833E-02  6.4257192013E-01
  2.8277591973E+04  6.8861210734E-01  4.4988524510E+00  1.5824227834E-02  1.5415752355E-02  6.4356895986E-01
  2.8374581940E+04  6.9202285955E-01  4.4950788885E+00  1.5969785010E-02  1.5555545682E-02  6.4456145870E-01
  2.8471571906E+04  6.9543878026E-01  4.4913213517E+00  1.6116176951E-02  1.5696111248E-02  6.4554944564E-01
  2.8568561873E+04  6.9885985967E-01  4.4875797185E+00  1.6263405572E-02  1.5837450483E-02  6.4653294941E-01
  2.8665551839E+04  7.0229807770E-01  4.4839111570E+00  1.6411472785E-02  1.5979571747E-02  6.4751199849E-01
  2.8762541806E+04  7.0574339060E-01  4.4802668980E+00  1.6560380500E-02  1.6122470787E-02  6.4848662109E-01
  2.8859531773E+04  7.0919392169E-01  4.4766378541E+00  1.6710130625E-02  1.6266147953E-02  6.4945684517E-01
  2.8956521739E+04  7.1264966129E-01  4.4730239108E+00  1.6860725064E-02  1.6410604658E-02  6.5042269842E-01
  2.9053511706E+04  7.1611059978E-01  4.4694249551E+00  1.7012165723E-02  1.6555842312E-02  6.5138420831E-01
  2.9150501672E+04  7.1958763103E-01  4.4658919564E+00  1.7164454503E-02  1.6701868909E-02  6.5234140204E-01
  2.9247491639E+04  7.2307290771E-01  4.4623874324E+00  1.2594344547E-02  1.2344490328E-02  6.5329430658E-01
  2.9344481605E+04  7.2656344259E-01  4.4588972473E+00  1.2696408512E-02  1.2443530628E-02  6.5424294866E-01
  2.9441471572E+04  7.3005922617E-01  4.4554212953E+00  1.2802130551E-02  1.2546076113E-02  6.5518735476E-01
  2.9538461538E+04  7.3356024902E-01  4.4519594718E+00  1.2910766910E-02  1.2651410909E-02  6.5612755115E-01
  2.9635451505E+04  7.3707509394E-01  4.4485511588E+00  1.3019963136E-02  1.2757276126E-02  6.5706356384E-01
  2.9732441472E+04  7.4060055359E-01  4.4451809853E+00  1.3129720388E-02  1.2863671676E-02  6.5799541864E-01
  2.9829431438E+04  7.4413131160E-01  4.4418243285E+00  1.3240038288E-02  1.2970595237E-02  6.5892314112E-01
  2.9926421405E+04  7.4766735869E-01  4.4384810905E+00  1.3350917840E-02  1.3078047592E-02  6.5984675663E-01
  3.0023411371E+04  7.5120868559E-01  4.4351511744E+00  1.3462974100E-02  1.3186618624E-02  6.6076629031E-01
  3.0120401338E+04  7.5476031409E-01  4.4318572005E+00  1.3577546846E-02  1.3297594695E-02  6.6168176706E-01
  3.0217391304E+04  7.5832617407E-01  4.4286163933E+00  1.3692721380E-02  1.3409139799E-02  6.6259321159E-01
  3.0314381271E+04  7.6189737279E-01  4.4253883301E+00  1.3808498914E-02  1.3521251798E-02  6.6350064838E-01
  3.0411371237E+04  7.6547390113E-01  4.4221729202E+00  1.3924880659E-02  1.3633931647E-02  6.6440410172E-01
  3.0508361204E+04  7.6905574999E-01  4.4189700739E+00  1.4041867825E-02  1.3747180298E-02  6.6530359568E-01
  3.0605351171E+04  7.7264310096E-01  4.4157805509E+00  1.4159461620E-02  1.3860998769E-02  6.6619915414E-01
  3.0702341137E+04  7.7624958253E-01  4.4126646268E+00  1.4277663250E-02  1.3975393035E-02  6.6709080075E-01
  3.0799331104E+04  7.7986144342E-01  4.4095607188E+00  1.4396473921E-02  1.4090359055E-02  6.6797855899E-01
  3.0896321070E+04  7.8347867469E-01  4.4064687430E+00  1.4515894836E-02  1.4205897771E-02  6.6886245213E-01
  3.0993311037E+04  7.8710126742E-01  4.4033886163E+00  1.4635927199E-02  1.4322010124E-02  6.6974250326E-01
  3.1090301003E+04  7.9072921275E-01  4.4003202564E+00  1.4756572210E-02  1.4438697051E-02  6.7061873525E-01
  3.1187290970E+04  7.9437056999E-01  4.3972988250E+00  1.4877831068E-02  1.4555962582E-02  6.7149117080E-01
