#[MATERIAL DEFINITION FOR MC-GPU: interaction mean free path and sampling data from PENELOPE 2006]
#[MATERIAL NAME]
# AmalgamTooth_29                                               
#[NOMINAL DENSITY (g/cm^3)]
#   2.28509000
#[NUMBER OF DATA VALUES]
#   1495
#[MEAN FREE PATHS (cm) (ie, average distance between interactions)]
#[Energy (eV)     | Rayleigh        | Compton         | Photoelectric   | TOTAL (+pair prod) (cm) | Rayleigh: max cumul prob F^2]
  5.0000000000E+03  9.7029518030E-02  8.5699291256E+00  5.9879694675E-04  5.9508293993E-04  1.4839788459E-01
  5.0969899666E+03  9.8297326492E-02  8.4810010202E+00  6.2930764619E-04  6.2525829522E-04  1.5211440521E-01
  5.1939799331E+03  9.9573768093E-02  8.3946906933E+00  6.6075354031E-04  6.5634648199E-04  1.5582293669E-01
  5.2909698997E+03  1.0085886325E-01  8.3108958774E+00  6.9314502167E-04  6.8835692965E-04  1.5952271177E-01
  5.3879598662E+03  1.0215262173E-01  8.2295194074E+00  7.2649240266E-04  7.2129896930E-04  1.6321303769E-01
  5.4849498328E+03  1.0345504298E-01  8.1504688526E+00  7.6080591761E-04  7.5518183592E-04  1.6689329177E-01
  5.5819397993E+03  1.0476611642E-01  8.0736561802E+00  7.9609572478E-04  7.9001467046E-04  1.7056291011E-01
  5.6789297659E+03  1.0608582174E-01  7.9989974501E+00  8.3237190822E-04  8.2580652167E-04  1.7422129006E-01
  5.7759197324E+03  1.0741412906E-01  7.9264125352E+00  8.6964447962E-04  8.6256634808E-04  1.7786782866E-01
  5.8729096990E+03  1.0875099920E-01  7.8558248665E+00  9.0792338002E-04  9.0030301963E-04  1.8150198037E-01
  5.9698996656E+03  1.1009638385E-01  7.7871611913E+00  9.4721848151E-04  9.3902531937E-04  1.8512325281E-01
  6.0668896321E+03  1.1145022634E-01  7.7203509994E+00  9.8799557412E-04  9.7918984029E-04  1.8873120354E-01
  6.1638795987E+03  1.1281246292E-01  7.6553257550E+00  1.0300515264E-03  1.0205954976E-03  1.9232540701E-01
  6.2608695652E+03  1.1418302267E-01  7.5920189111E+00  1.0731988042E-03  1.0630569287E-03  1.9590541225E-01
  6.3578595318E+03  1.1556182595E-01  7.5303667047E+00  1.1174481555E-03  1.1065836158E-03  1.9947080460E-01
  6.4548494983E+03  1.1694972389E-01  7.4703213750E+00  1.1628102667E-03  1.1511850485E-03  2.0302121011E-01
  6.5518394649E+03  1.1834689574E-01  7.4118296213E+00  1.2092957634E-03  1.1968705864E-03  2.0655629320E-01
  6.6488294314E+03  1.1975230153E-01  7.3548226889E+00  1.2569152117E-03  1.2436493835E-03  2.1007573609E-01
  6.7458193980E+03  1.2116583089E-01  7.2992468946E+00  1.3056791197E-03  1.2915306001E-03  2.1357920950E-01
  6.8428093645E+03  1.2258736496E-01  7.2450506348E+00  1.3555979382E-03  1.3405233168E-03  2.1706641191E-01
  6.9397993311E+03  1.2401677647E-01  7.1921842582E+00  1.4066820623E-03  1.3906365358E-03  2.2053707316E-01
  7.0367892977E+03  1.2545404233E-01  7.1406017265E+00  1.4591937877E-03  1.4421252930E-03  2.2399095390E-01
  7.1337792642E+03  1.2690242941E-01  7.0903102963E+00  1.5133310290E-03  1.4951816313E-03  2.2742783693E-01
  7.2307692308E+03  1.2835855460E-01  7.0412130241E+00  1.5687047228E-03  1.5494236020E-03  2.3084748250E-01
  7.3277591973E+03  1.2982225626E-01  6.9932653025E+00  1.6253259492E-03  1.6048607047E-03  2.3424966844E-01
  7.4247491639E+03  1.3129336520E-01  6.9464243933E+00  1.6832057384E-03  1.6615023614E-03  2.3763419722E-01
  7.5217391304E+03  1.3277375949E-01  6.9006809158E+00  1.7423550705E-03  1.7193582636E-03  2.4100089449E-01
  7.6187290970E+03  1.3426404704E-01  6.8560076631E+00  1.8027848772E-03  1.7784378674E-03  2.4434960783E-01
  7.7157190635E+03  1.3576150384E-01  6.8123278834E+00  1.8645060425E-03  1.8387499671E-03  2.4768020539E-01
  7.8127090301E+03  1.3726593444E-01  6.7696053144E+00  1.9275294030E-03  1.9003036899E-03  2.5099257478E-01
  7.9096989967E+03  1.3878045740E-01  6.7278551623E+00  1.9918657493E-03  1.9631087559E-03  2.5428661037E-01
  8.0066889632E+03  1.4030413340E-01  6.6870326992E+00  2.0575720558E-03  2.0272189505E-03  2.5756219048E-01
  8.1036789298E+03  1.4183447550E-01  6.6470708202E+00  2.1252559299E-03  2.0932217134E-03  2.6081921239E-01
  8.2006688963E+03  1.4337232119E-01  6.6079536921E+00  2.1943210225E-03  2.1605364419E-03  2.6405758974E-01
  8.2976588629E+03  1.4492192237E-01  6.5697145371E+00  2.2647786809E-03  2.2291736322E-03  2.6727725140E-01
  8.3946488294E+03  1.4647781203E-01  6.5322473935E+00  2.3366402102E-03  2.2991414726E-03  2.7047814060E-01
  8.4916387960E+03  1.4803998205E-01  6.4955276929E+00  2.4099168745E-03  2.3704492824E-03  2.7366021401E-01
  8.5886287625E+03  1.4961504108E-01  6.4596223812E+00  2.4846198970E-03  2.4431080930E-03  2.7682344111E-01
  8.6856187291E+03  1.5119597055E-01  6.4244107009E+00  2.5607604612E-03  2.5171253475E-03  2.7996780261E-01
  8.7826086957E+03  1.5278339582E-01  6.3898797813E+00  2.6383497109E-03  2.5925103477E-03  2.8309327251E-01
  8.8795986622E+03  1.5438334828E-01  6.3560879739E+00  2.7173987511E-03  2.6692739885E-03  2.8619982994E-01
  8.9765886288E+03  1.5598871653E-01  6.3229204522E+00  2.6349458132E-03  2.5901144817E-03  2.8928746451E-01
  9.0735785953E+03  1.5760227604E-01  6.2903941551E+00  2.7101642892E-03  2.6632195392E-03  2.9235617571E-01
  9.1705685619E+03  1.5922645551E-01  6.2585201532E+00  2.7887252022E-03  2.7395239110E-03  2.9540597229E-01
  9.2675585284E+03  1.6085555219E-01  6.2272084181E+00  2.8686712016E-03  2.8171331557E-03  2.9843687175E-01
  9.3645484950E+03  1.6249603174E-01  6.1965211426E+00  2.9502871587E-03  2.8963223689E-03  3.0144889978E-01
  9.4615384615E+03  1.6414363838E-01  6.1663886992E+00  3.0333476990E-03  2.9768712318E-03  3.0444208977E-01
  9.5585284281E+03  1.6579770116E-01  6.1367875199E+00  3.1178623940E-03  3.0587871751E-03  3.0741648230E-01
  9.6555183946E+03  1.6746373115E-01  6.1077659502E+00  3.1038911137E-03  3.0458885798E-03  3.1037212477E-01
  9.7525083612E+03  1.6913387898E-01  6.0792180480E+00  3.1883454404E-03  3.1277438941E-03  3.1330907087E-01
  9.8494983278E+03  1.7081604183E-01  6.0512191847E+00  3.2742267192E-03  3.2109415314E-03  3.1622738025E-01
  9.9464882943E+03  1.7250423207E-01  6.0236876989E+00  3.3615446240E-03  3.2954872692E-03  3.1912711662E-01
  1.0043478261E+04  1.7420075483E-01  5.9966360713E+00  3.4507084539E-03  3.3817735572E-03  3.2200833655E-01
  1.0140468227E+04  1.7590684470E-01  5.9700647026E+00  3.5418474747E-03  3.4699227140E-03  3.2487110456E-01
  1.0237458194E+04  1.7761799963E-01  5.9439131760E+00  3.6344903437E-03  3.5594783837E-03  3.2771549142E-01
  1.0334448161E+04  1.7934179932E-01  5.9182505669E+00  3.7287104648E-03  3.6505123999E-03  3.3054157215E-01
  1.0431438127E+04  1.8106852596E-01  5.8929631398E+00  3.8245146099E-03  3.7430255189E-03  3.3334942574E-01
  1.0528428094E+04  1.8280912332E-01  5.8681544564E+00  3.9218585104E-03  3.8369783088E-03  3.3613913485E-01
  1.0625418060E+04  1.8455301837E-01  5.8437044532E+00  4.0208494558E-03  3.9324671527E-03  3.3891078560E-01
  1.0722408027E+04  1.8630882100E-01  5.8196914780E+00  4.1214915120E-03  4.0294979740E-03  3.4166446728E-01
  1.0819397993E+04  1.8806964911E-01  5.7960358168E+00  4.2237117744E-03  4.1279961100E-03  3.4440027214E-01
  1.0916387960E+04  1.8984087585E-01  5.7727821431E+00  4.3275204984E-03  4.2279722288E-03  3.4711829518E-01
  1.1013377926E+04  1.9161838963E-01  5.7498804021E+00  4.4329279135E-03  4.3294323712E-03  3.4981863391E-01
  1.1110367893E+04  1.9340525127E-01  5.7273519313E+00  4.5399442237E-03  4.4323860994E-03  3.5250138817E-01
  1.1207357860E+04  1.9519919164E-01  5.7051661373E+00  4.6486004653E-03  4.5368600715E-03  3.5516665995E-01
  1.1304347826E+04  1.9700189120E-01  5.6833308958E+00  4.7589417634E-03  4.6428963589E-03  3.5781455321E-01
  1.1401337793E+04  1.9881198774E-01  5.6618253334E+00  4.8709254587E-03  4.7504517699E-03  3.6044517369E-01
  1.1498327759E+04  2.0063072076E-01  5.6406533069E+00  4.9845617048E-03  4.8595348908E-03  3.6305862879E-01
  1.1595317726E+04  2.0245669203E-01  5.6197943449E+00  5.0998606310E-03  4.9701527363E-03  3.6565502739E-01
  1.1692307692E+04  2.0429164681E-01  5.5992573282E+00  5.2168323425E-03  5.0823141560E-03  3.6823447971E-01
  1.1789297659E+04  2.0613320066E-01  5.5790132622E+00  5.3354869212E-03  5.1960254172E-03  3.7079709720E-01
  1.1886287625E+04  2.0798455852E-01  5.5590847226E+00  5.4559068897E-03  5.3113649506E-03  3.7334299238E-01
  1.1983277592E+04  2.0984139237E-01  5.5394256320E+00  5.5780697949E-03  5.4283066666E-03  3.7587227875E-01
  1.2080267559E+04  2.1170932785E-01  5.5200805848E+00  5.7019498793E-03  5.5468280383E-03  3.7838507066E-01
  1.2177257525E+04  2.1358112901E-01  5.5009782021E+00  5.8275571975E-03  5.6669317066E-03  3.8088148318E-01
  1.2274247492E+04  2.1546581006E-01  5.4821930979E+00  5.9549017817E-03  5.7886316395E-03  3.8336163207E-01
  1.2371237458E+04  2.1735225600E-01  5.4636206900E+00  6.0839936422E-03  5.9119273240E-03  3.8582563359E-01
  1.2468227425E+04  2.1925384391E-01  5.4453733280E+00  6.2148427674E-03  6.0368362129E-03  3.8827360448E-01
  1.2565217391E+04  2.2115714010E-01  5.4273275994E+00  6.3483398455E-03  6.1641859720E-03  3.9070566187E-01
  1.2662207358E+04  2.2307324296E-01  5.4095755691E+00  6.4840810399E-03  6.2936009283E-03  3.9312192314E-01
  1.2759197324E+04  2.2499369583E-01  5.3920382197E+00  6.6216551776E-03  6.4246843382E-03  3.9552250593E-01
  1.2856187291E+04  2.2692378823E-01  5.3747575493E+00  6.7610727847E-03  6.5574483071E-03  3.9790752798E-01
  1.2953177258E+04  2.2886151822E-01  5.3577107835E+00  6.9023443673E-03  6.6918989935E-03  4.0027710714E-01
  1.3050167224E+04  2.3080523275E-01  5.3408799113E+00  7.0454804118E-03  6.8280426643E-03  4.0263136126E-01
  1.3147157191E+04  2.3276035288E-01  5.3243069282E+00  7.1904913846E-03  6.9658918447E-03  4.0497040814E-01
  1.3244147157E+04  2.3471748154E-01  5.3079066214E+00  7.3373877328E-03  7.1054456739E-03  4.0729436549E-01
  1.3341137124E+04  2.3668993313E-01  5.2917900560E+00  7.4861798841E-03  7.2467240986E-03  4.0960335085E-01
  1.3438127090E+04  2.3866465938E-01  5.2758400537E+00  7.6368782470E-03  7.3897224670E-03  4.1189748155E-01
  1.3535117057E+04  2.4064998072E-01  5.2601252087E+00  7.7894932111E-03  7.5344562632E-03  4.1417687469E-01
  1.3632107023E+04  2.4264240371E-01  5.2446107728E+00  7.9440351470E-03  7.6809296156E-03  4.1644164706E-01
  1.3729096990E+04  2.4464020635E-01  5.2292789631E+00  8.1005958032E-03  7.8292241835E-03  4.1869191510E-01
  1.3826086957E+04  2.4665041929E-01  5.2141860924E+00  8.2592469885E-03  7.9794119263E-03  4.2092779490E-01
  1.3923076923E+04  2.4866292461E-01  5.1992418350E+00  8.4198634508E-03  8.1313627739E-03  4.2314940212E-01
  1.4020066890E+04  2.5068840045E-01  5.1845347191E+00  8.5824555857E-03  8.2850956583E-03  4.2535685028E-01
  1.4117056856E+04  2.5271887909E-01  5.1699923890E+00  8.7470337708E-03  8.4406092678E-03  4.2755025568E-01
  1.4214046823E+04  2.5475603151E-01  5.1556266659E+00  8.9136083659E-03  8.5979126933E-03  4.2972973199E-01
  1.4311036789E+04  2.5680456381E-01  5.1414739063E+00  9.0821897136E-03  8.7570187490E-03  4.3189539496E-01
  1.4408026756E+04  2.5885556517E-01  5.1274551991E+00  9.2527881389E-03  8.9179241709E-03  4.3404735940E-01
  1.4505016722E+04  2.6091964809E-01  5.1136582182E+00  9.4254139498E-03  9.0806489297E-03  4.3618573925E-01
  1.4602006689E+04  2.6298887097E-01  5.1000117030E+00  9.6000774371E-03  9.2451905891E-03  4.3831064753E-01
  1.4698996656E+04  2.6506379227E-01  5.0865182740E+00  9.7767888747E-03  9.4115568261E-03  4.4042219637E-01
  1.4795986622E+04  2.6715130477E-01  5.0732330022E+00  9.9555585197E-03  9.5797636670E-03  4.4252049698E-01
  1.4892976589E+04  2.6924145709E-01  5.0600688937E+00  1.0136396613E-02  9.7498052163E-03  4.4460565964E-01
  1.4989966555E+04  2.7134251325E-01  5.0470936072E+00  1.0319313377E-02  9.9216994281E-03  4.4667779373E-01
  1.5086956522E+04  2.7345110848E-01  5.0342753044E+00  1.0505648221E-02  1.0096676594E-02  4.4873700771E-01
  1.5183946488E+04  2.7556241985E-01  5.0215713866E+00  1.0694276713E-02  1.0273686615E-02  4.5078340912E-01
  1.5280936455E+04  2.7768923107E-01  5.0090867729E+00  1.0885058406E-02  1.0452615234E-02  4.5281710458E-01
  1.5377926421E+04  2.7981913219E-01  4.9967142657E+00  1.1078003976E-02  1.0633451983E-02  4.5483819980E-01
  1.5474916388E+04  2.8195545212E-01  4.9844801272E+00  1.1273124083E-02  1.0816208724E-02  4.5684679956E-01
  1.5571906355E+04  2.8410399522E-01  4.9724299636E+00  1.1470429372E-02  1.1000901467E-02  4.5884300774E-01
  1.5668896321E+04  2.8625541732E-01  4.9604834834E+00  1.1669930474E-02  1.1187523093E-02  4.6082692728E-01
  1.5765886288E+04  2.8841662433E-01  4.9486965393E+00  1.1871638004E-02  1.1376091335E-02  4.6279866148E-01
  1.5862876254E+04  2.9058682242E-01  4.9370595479E+00  1.2075562563E-02  1.1566612157E-02  4.6475831431E-01
  1.5959866221E+04  2.9275997214E-01  4.9255206070E+00  1.2281714739E-02  1.1759082688E-02  4.6670598866E-01
  1.6056856187E+04  2.9494564367E-01  4.9141572008E+00  1.2490105102E-02  1.1953525681E-02  4.6864178637E-01
  1.6153846154E+04  2.9713769624E-01  4.9029157100E+00  1.2700744211E-02  1.2149937967E-02  4.7056580822E-01
  1.6250836120E+04  2.9933277195E-01  4.8917669985E+00  1.2913642609E-02  1.2348320461E-02  4.7247815397E-01
  1.6347826087E+04  3.0154246976E-01  4.8808046925E+00  1.3128810824E-02  1.2548700327E-02  4.7437892233E-01
  1.6444816054E+04  3.0375656821E-01  4.8699421438E+00  1.3346259373E-02  1.2751066495E-02  4.7626821101E-01
  1.6541806020E+04  3.0597388019E-01  4.8591684191E+00  1.3565998756E-02  1.2955423270E-02  4.7814611668E-01
  1.6638795987E+04  3.0820703107E-01  4.8485849149E+00  1.3788039461E-02  1.3161800775E-02  4.8001273506E-01
  1.6735785953E+04  3.1044335895E-01  4.8380857755E+00  1.4012391960E-02  1.3370182287E-02  4.8186816084E-01
  1.6832775920E+04  3.1268373830E-01  4.8276770810E+00  1.4239066715E-02  1.3580575775E-02  4.8371248776E-01
  1.6929765886E+04  3.1493922606E-01  4.8174468297E+00  1.4468074171E-02  1.3793009482E-02  4.8554580857E-01
  1.7026755853E+04  3.1719795924E-01  4.8072965135E+00  1.4699424762E-02  1.4007466853E-02  4.8736821509E-01
  1.7123745819E+04  3.1946093023E-01  4.7972332020E+00  1.4933128907E-02  1.4223956074E-02  4.8917979818E-01
  1.7220735786E+04  3.2173892419E-01  4.7873422245E+00  1.5169197012E-02  1.4442505871E-02  4.9098064687E-01
  1.7317725753E+04  3.2402023107E-01  4.7775270203E+00  1.5407639470E-02  1.4663098675E-02  4.9277084903E-01
  1.7414715719E+04  3.2630530485E-01  4.7677903513E+00  1.5648466662E-02  1.4885741501E-02  4.9455049524E-01
  1.7511705686E+04  3.2860596709E-01  4.7582254613E+00  1.5891888184E-02  1.5110646461E-02  4.9631967525E-01
  1.7608695652E+04  3.3091000885E-01  4.7487324312E+00  1.6139190226E-02  1.5338945563E-02  4.9807847776E-01
  1.7705685619E+04  3.3321741644E-01  4.7393103297E+00  1.6388950381E-02  1.5569348096E-02  4.9982699049E-01
  1.7802675585E+04  3.3554017070E-01  4.7300529127E+00  1.6641179412E-02  1.5801887848E-02  5.0156530015E-01
  1.7899665552E+04  3.3786710255E-01  4.7208695071E+00  1.6895888074E-02  1.6036546099E-02  5.0329349248E-01
  1.7996655518E+04  3.4019746607E-01  4.7117534132E+00  1.7153087107E-02  1.6273327249E-02  5.0501165226E-01
  1.8093645485E+04  3.4254132763E-01  4.7027824227E+00  1.7412787241E-02  1.6512261704E-02  5.0671986331E-01
  1.8190635452E+04  3.4489129850E-01  4.6938966065E+00  1.7674999193E-02  1.6753338456E-02  5.0841820853E-01
  1.8287625418E+04  3.4724476607E-01  4.6850746984E+00  1.7939733669E-02  1.6996557262E-02  5.1010676988E-01
  1.8384615385E+04  3.4960920661E-01  4.6763736860E+00  1.8207001362E-02  1.7241943024E-02  5.1178562842E-01
  1.8481605351E+04  3.5198235860E-01  4.6677741075E+00  1.8476812956E-02  1.7489496686E-02  5.1345486432E-01
  1.8578595318E+04  3.5435907155E-01  4.6592352313E+00  1.8749179120E-02  1.7739211246E-02  5.1511455684E-01
  1.8675585284E+04  3.5674355207E-01  4.6507885198E+00  1.9024110515E-02  1.7991103709E-02  5.1676478440E-01
  1.8772575251E+04  3.5914002059E-01  4.6424644648E+00  1.9301725828E-02  1.8245288285E-02  5.1840562454E-01
  1.8869565217E+04  3.6154011358E-01  4.6341980897E+00  1.9581985931E-02  1.8501704145E-02  5.2003715395E-01
  1.8966555184E+04  3.6394408500E-01  4.6259907188E+00  1.9864847159E-02  1.8760309144E-02  5.2165944849E-01
  1.9063545151E+04  3.6636399889E-01  4.6179320656E+00  2.0150320166E-02  1.9021143061E-02  5.2327258321E-01
  1.9160535117E+04  3.6878760001E-01  4.6099282406E+00  2.0438415596E-02  1.9284177986E-02  5.2487663232E-01
  1.9257525084E+04  3.7121487527E-01  4.6019785959E+00  2.0729144081E-02  1.9549419508E-02  5.2647166924E-01
  1.9354515050E+04  3.7365398548E-01  4.5941430959E+00  2.1022516242E-02  1.9816897291E-02  5.2805776661E-01
  1.9451505017E+04  3.7610121639E-01  4.5863924096E+00  2.1318542688E-02  2.0086606804E-02  5.2963499626E-01
  1.9548494983E+04  3.7855218357E-01  4.5786932529E+00  2.1617234020E-02  2.0358540815E-02  5.3120342928E-01
  1.9645484950E+04  3.8100965079E-01  4.5710654171E+00  2.1918600827E-02  2.0632713317E-02  5.3276313599E-01
  1.9742474916E+04  3.8348062678E-01  4.5635589615E+00  2.2222653685E-02  2.0909152014E-02  5.3431418596E-01
  1.9839464883E+04  3.8595540049E-01  4.5561015295E+00  2.2529403164E-02  2.1187832811E-02  5.3585664810E-01
  1.9936454849E+04  3.8843395917E-01  4.5486925637E+00  2.2838859820E-02  2.1468761034E-02  5.3739059242E-01
  2.0033444816E+04  3.9092547615E-01  4.5413977521E+00  2.3151724111E-02  2.1752580971E-02  5.3891608815E-01
  2.0130434783E+04  3.9342416687E-01  4.5341736905E+00  2.3468657616E-02  2.2039852477E-02  5.4043320349E-01
  2.0227424749E+04  3.9592670343E-01  4.5269957602E+00  2.3788375026E-02  2.2329424955E-02  5.4194200585E-01
  2.0324414716E+04  3.9843539439E-01  4.5198799552E+00  2.4110887268E-02  2.2621311714E-02  5.4344256187E-01
  2.0421404682E+04  4.0095811822E-01  4.5128810634E+00  2.4436205260E-02  2.2915545662E-02  5.4493493744E-01
  2.0518394649E+04  4.0348474821E-01  4.5059260944E+00  2.4764339912E-02  2.3212098212E-02  5.4641919769E-01
  2.0615384615E+04  4.0601527191E-01  4.4990145668E+00  2.5095302122E-02  2.3510974671E-02  5.4789540702E-01
  2.0712374582E+04  4.0855688090E-01  4.4921960956E+00  2.5429102780E-02  2.3812206177E-02  5.4936362912E-01
  2.0809364548E+04  4.1110771827E-01  4.4854563316E+00  2.5765752765E-02  2.4115792271E-02  5.5082392694E-01
  2.0906354515E+04  4.1366250926E-01  4.4787579494E+00  2.6105262950E-02  2.4421719496E-02  5.5227636274E-01
  2.1003344482E+04  4.1622124161E-01  4.4721005046E+00  2.6447644194E-02  2.4729993004E-02  5.5372099811E-01
  2.1100334448E+04  4.1879521930E-01  4.4655605245E+00  2.6792907350E-02  2.5040660776E-02  5.5515789393E-01
  2.1197324415E+04  4.2137438551E-01  4.4590680315E+00  2.7141063260E-02  2.5353691002E-02  5.5658711042E-01
  2.1294314381E+04  4.2395755258E-01  4.4526145527E+00  2.7492122758E-02  2.5669084329E-02  5.5800870715E-01
  2.1391304348E+04  4.2654683745E-01  4.4462139558E+00  2.7846096668E-02  2.5986854145E-02  5.5942274304E-01
  2.1488294314E+04  4.2915048137E-01  4.4399204554E+00  2.8202995806E-02  2.6307038671E-02  5.6082927635E-01
  2.1585284281E+04  4.3175818517E-01  4.4336641457E+00  2.8562830977E-02  2.6629602821E-02  5.6222836473E-01
  2.1682274247E+04  4.3436993689E-01  4.4274446415E+00  2.8925612979E-02  2.6954551488E-02  5.6362006521E-01
  2.1779264214E+04  4.3699035881E-01  4.4212919939E+00  2.9291352599E-02  2.7281908741E-02  5.6500443419E-01
  2.1876254181E+04  4.3962269594E-01  4.4152263874E+00  2.9660060617E-02  2.7611693785E-02  5.6638152748E-01
  2.1973244147E+04  4.4225913962E-01  4.4091958802E+00  3.0031747802E-02  2.7943879470E-02  5.6775140029E-01
  2.2070234114E+04  4.4489967810E-01  4.4032001156E+00  3.0406424918E-02  2.8278470540E-02  5.6911410726E-01
  2.2167224080E+04  4.4755062341E-01  4.3972794222E+00  3.0784102716E-02  2.8615499267E-02  5.7046970244E-01
  2.2264214047E+04  4.5021184986E-01  4.3914318426E+00  3.1164791939E-02  2.8954970816E-02  5.7181824011E-01
  2.2361204013E+04  4.5287722935E-01  4.3856174073E+00  3.1548505623E-02  2.9296865462E-02  5.7315977414E-01
  2.2458193980E+04  4.5554675031E-01  4.3798357858E+00  3.1935696783E-02  2.9641568819E-02  5.7449435769E-01
  2.2555183946E+04  4.5822758348E-01  4.3741319370E+00  3.2325940500E-02  2.9988742255E-02  5.7582204334E-01
  2.2652173913E+04  4.6091788907E-01  4.3684931274E+00  3.2719247558E-02  3.0338383027E-02  5.7714288306E-01
  2.2749163880E+04  4.6361239400E-01  4.3628856326E+00  3.3115628733E-02  3.0690471856E-02  5.7845692829E-01
  2.2846153846E+04  4.6631108688E-01  4.3573091464E+00  3.3515094790E-02  3.1045013225E-02  5.7976422990E-01
  2.2943143813E+04  4.6902115123E-01  4.3518078508E+00  3.3917656488E-02  3.1402046142E-02  5.8106483821E-01
  2.3040133779E+04  4.7174071954E-01  4.3463691170E+00  3.4323324576E-02  3.1761567198E-02  5.8235880298E-01
  2.3137123746E+04  4.7446453331E-01  4.3409599845E+00  3.4732109797E-02  3.2123555859E-02  5.8364617346E-01
  2.3234113712E+04  4.7719258133E-01  4.3355801691E+00  3.5144022883E-02  3.2488016461E-02  5.8492699838E-01
  2.3331103679E+04  4.7993119982E-01  4.3302678921E+00  3.5559074560E-02  3.2854985260E-02  5.8620132593E-01
  2.3428093645E+04  4.8268020828E-01  4.3250210599E+00  3.5977275545E-02  3.3224466744E-02  5.8746920379E-01
  2.3525083612E+04  4.8543350812E-01  4.3198022223E+00  3.6398636546E-02  3.3596434844E-02  5.8873067917E-01
  2.3622073579E+04  4.8819108833E-01  4.3146111155E+00  3.6823168266E-02  3.3970893751E-02  5.8998579876E-01
  2.3719063545E+04  4.9095756435E-01  4.3094750235E+00  3.7251058472E-02  3.4348022559E-02  5.9123460876E-01
  2.3816053512E+04  4.9373618427E-01  4.3044123996E+00  3.7682194838E-02  3.4727738628E-02  5.9247715490E-01
  2.3913043478E+04  4.9651914133E-01  4.2993762624E+00  3.8116538339E-02  3.5109963091E-02  5.9371348243E-01
  2.4010033445E+04  4.9930642466E-01  4.2943663668E+00  3.8554099679E-02  3.5494700011E-02  5.9494363615E-01
  2.4107023411E+04  5.0210004278E-01  4.2893942763E+00  3.8994889553E-02  3.5881964544E-02  5.9616766038E-01
  2.4204013378E+04  5.0490843943E-01  4.2845086129E+00  3.9438918649E-02  3.6271808186E-02  5.9738559901E-01
  2.4301003344E+04  5.0772121878E-01  4.2796480195E+00  3.9886197646E-02  3.6664178241E-02  5.9859749538E-01
  2.4397993311E+04  5.1053837013E-01  4.2748122684E+00  4.0336737216E-02  3.7059078627E-02  5.9980339222E-01
  2.4494983278E+04  5.1335988286E-01  4.2700011346E+00  4.0790548025E-02  3.7456513219E-02  6.0100333253E-01
  2.4591973244E+04  5.1619672954E-01  4.2652770618E+00  4.1247640729E-02  3.7856549857E-02  6.0219735895E-01
  2.4688963211E+04  5.1903949027E-01  4.2605852621E+00  4.1708025977E-02  3.8259138969E-02  6.0338551371E-01
  2.4785953177E+04  5.2188666853E-01  4.2559169885E+00  4.2171714411E-02  3.8664275761E-02  6.0456783858E-01
  2.4882943144E+04  5.2473825385E-01  4.2512720318E+00  4.2638716665E-02  3.9071963966E-02  6.0574437489E-01
  2.4979933110E+04  5.2760077611E-01  4.2466868653E+00  4.3109043366E-02  3.9482247069E-02  6.0691516357E-01
  2.5076923077E+04  5.3047367312E-01  4.2421574976E+00  4.3585047474E-02  3.9897089308E-02  6.0808024511E-01
  2.5173913043E+04  5.3335103302E-01  4.2376504174E+00  4.4065056155E-02  4.0315043434E-02  6.0923965958E-01
  2.5270903010E+04  5.3623284548E-01  4.2331654296E+00  4.4548474862E-02  4.0735605272E-02  6.1039344666E-01
  2.5367892977E+04  5.3912027221E-01  4.2287088060E+00  4.5035314591E-02  4.1158785991E-02  6.1154164562E-01
  2.5464882943E+04  5.4202346643E-01  4.2243359344E+00  4.5525586334E-02  4.1584654731E-02  6.1268429534E-01
  2.5561872910E+04  5.4493116876E-01  4.2199841826E+00  1.1133394563E-02  1.0882348764E-02  6.1382143430E-01
  2.5658862876E+04  5.4784336906E-01  4.2156533692E+00  1.1234682515E-02  1.0980247142E-02  6.1495310060E-01
  2.5755852843E+04  5.5076005725E-01  4.2113433147E+00  1.1336501066E-02  1.1078642643E-02  6.1607933196E-01
  2.5852842809E+04  5.5368856193E-01  4.2070934199E+00  1.1438850956E-02  1.1177539059E-02  6.1720016573E-01
  2.5949832776E+04  5.5662676700E-01  4.2028914782E+00  1.1541732922E-02  1.1276936038E-02  6.1831563887E-01
  2.6046822742E+04  5.5956951536E-01  4.1987093856E+00  1.1649434404E-02  1.1380923229E-02  6.1942578802E-01
  2.6143812709E+04  5.6251679705E-01  4.1945469752E+00  1.1765989029E-02  1.1493346651E-02  6.2053064942E-01
  2.6240802676E+04  5.6546862865E-01  4.1904042220E+00  1.1883271285E-02  1.1606448919E-02  6.2163025898E-01
  2.6337792642E+04  5.6843749156E-01  4.1863468647E+00  1.2001282997E-02  1.1720237273E-02  6.2272465225E-01
  2.6434782609E+04  5.7141094299E-01  4.1823083282E+00  1.2120025986E-02  1.1834707436E-02  6.2381386443E-01
  2.6531772575E+04  5.7438897314E-01  4.1782884568E+00  1.2239502072E-02  1.1949860815E-02  6.2489793041E-01
  2.6628762542E+04  5.7737157228E-01  4.1742870963E+00  1.2356171438E-02  1.2062323650E-02  6.2597688471E-01
  2.6725752508E+04  5.8036297254E-01  4.1703261348E+00  1.2472761788E-02  1.2174699003E-02  6.2705076155E-01
  2.6822742475E+04  5.8336727687E-01  4.1664262590E+00  1.2590022787E-02  1.2287703260E-02  6.2811959480E-01
  2.6919732441E+04  5.8637620521E-01  4.1625440868E+00  1.2707955838E-02  1.2401333508E-02  6.2918341802E-01
  2.7016722408E+04  5.8938974798E-01  4.1586794745E+00  1.2826562340E-02  1.2515590798E-02  6.3024226446E-01
  2.7113712375E+04  5.9240789565E-01  4.1548322801E+00  1.2945843692E-02  1.2630476180E-02  6.3129616704E-01
  2.7210702341E+04  5.9543810883E-01  4.1510403725E+00  1.3065801288E-02  1.2745994479E-02  6.3234515839E-01
  2.7307692308E+04  5.9847807994E-01  4.1472913077E+00  1.3186436523E-02  1.2862145660E-02  6.3338927082E-01
  2.7404682274E+04  6.0152271081E-01  4.1435589032E+00  1.3307756878E-02  1.2978934003E-02  6.3442853635E-01
  2.7501672241E+04  6.0457199205E-01  4.1398430263E+00  1.3429783598E-02  1.3096379420E-02  6.3546298670E-01
  2.7598662207E+04  6.0762591432E-01  4.1361435458E+00  1.3552492529E-02  1.3214458643E-02  6.3649265329E-01
  2.7695652174E+04  6.1069415161E-01  4.1325086055E+00  1.3677808429E-02  1.3335005997E-02  6.3751756727E-01
  2.7792642140E+04  6.1377000989E-01  4.1289040967E+00  1.3806276404E-02  1.3458534397E-02  6.3853775948E-01
  2.7889632107E+04  6.1685056390E-01  4.1253152725E+00  1.3935496637E-02  1.3582760368E-02  6.3955326050E-01
  2.7986622074E+04  6.1993580445E-01  4.1217420105E+00  1.4065470889E-02  1.3707685240E-02  6.4056410062E-01
  2.8083612040E+04  6.2302572238E-01  4.1181841896E+00  1.4196200920E-02  1.3833310338E-02  6.4157031023E-01
  2.8180602007E+04  6.2613116266E-01  4.1146947315E+00  1.4327688487E-02  1.3959642990E-02  6.4257192013E-01
  2.8277591973E+04  6.2924312351E-01  4.1112289064E+00  1.4459935345E-02  1.4086679651E-02  6.4356895986E-01
  2.8374581940E+04  6.3235981627E-01  4.1077778528E+00  1.4592943247E-02  1.4214420661E-02  6.4456145870E-01
  2.8471571906E+04  6.3548123194E-01  4.1043414576E+00  1.4726713945E-02  1.4342867330E-02  6.4554944564E-01
  2.8568561873E+04  6.3860736154E-01  4.1009196089E+00  1.4861249188E-02  1.4472020967E-02  6.4653294941E-01
  2.8665551839E+04  6.4174915215E-01  4.0975647039E+00  1.4996550724E-02  1.4601889211E-02  6.4751199849E-01
  2.8762541806E+04  6.4489742594E-01  4.0942320438E+00  1.5132620297E-02  1.4732468176E-02  6.4848662109E-01
  2.8859531773E+04  6.4805046804E-01  4.0909132996E+00  1.5269459651E-02  1.4863758179E-02  6.4945684517E-01
  2.8956521739E+04  6.5120826959E-01  4.0876083670E+00  1.5407070528E-02  1.4995760513E-02  6.5042269842E-01
  2.9053511706E+04  6.5437082180E-01  4.0843171423E+00  1.5545454666E-02  1.5128476465E-02  6.5138420831E-01
  2.9150501672E+04  6.5754807933E-01  4.0810863759E+00  1.5684613804E-02  1.5261913344E-02  6.5234140204E-01
  2.9247491639E+04  6.6073287141E-01  4.0778816887E+00  1.1508517810E-02  1.1280206568E-02  6.5329430658E-01
  2.9344481605E+04  6.6392246835E-01  4.0746901154E+00  1.1601782287E-02  1.1370708079E-02  6.5424294866E-01
  2.9441471572E+04  6.6711686147E-01  4.0715115590E+00  1.1698389455E-02  1.1464412574E-02  6.5518735476E-01
  2.9538461538E+04  6.7031604216E-01  4.0683459239E+00  1.1797659685E-02  1.1560665900E-02  6.5612755115E-01
  2.9635451505E+04  6.7352785324E-01  4.0652293589E+00  1.1897441512E-02  1.1657403917E-02  6.5706356384E-01
  2.9732441472E+04  6.7674936389E-01  4.0621477555E+00  1.1997735996E-02  1.1754626544E-02  6.5799541864E-01
  2.9829431438E+04  6.7997571611E-01  4.0590785128E+00  1.2098542792E-02  1.1852331660E-02  6.5892314112E-01
  2.9926421405E+04  6.8320690141E-01  4.0560215412E+00  1.2199862816E-02  1.1950519980E-02  6.5984675663E-01
  3.0023411371E+04  6.8644291131E-01  4.0529767522E+00  1.2302258099E-02  1.2049730530E-02  6.6076629031E-01
  3.0120401338E+04  6.8968833466E-01  4.0499649163E+00  1.2406952907E-02  1.2151138769E-02  6.6168176706E-01
  3.0217391304E+04  6.9294676252E-01  4.0470018491E+00  1.2512197620E-02  1.2253066983E-02  6.6259321159E-01
  3.0314381271E+04  6.9621006883E-01  4.0440504348E+00  1.2617993345E-02  1.2355513217E-02  6.6350064838E-01
  3.0411371237E+04  6.9947824526E-01  4.0411105906E+00  1.2724341189E-02  1.2458478343E-02  6.6440410172E-01
  3.0508361204E+04  7.0275128351E-01  4.0381822343E+00  1.2831242257E-02  1.2561963231E-02  6.6530359568E-01
  3.0605351171E+04  7.0602934950E-01  4.0352660634E+00  1.2938697653E-02  1.2665968813E-02  6.6619915414E-01
  3.0702341137E+04  7.0932489673E-01  4.0324173893E+00  1.3046708479E-02  1.2770500550E-02  6.6709080075E-01
  3.0799331104E+04  7.1262535952E-01  4.0295797016E+00  1.3155275838E-02  1.2875554746E-02  6.6797855899E-01
  3.0896321070E+04  7.1593072966E-01  4.0267529236E+00  1.3264400829E-02  1.2981132264E-02  6.6886245213E-01
  3.0993311037E+04  7.1924099903E-01  4.0239369792E+00  1.3374084551E-02  1.3087233962E-02  6.6974250326E-01
  3.1090301003E+04  7.2255615952E-01  4.0211317932E+00  1.3484328101E-02  1.3193860697E-02  6.7061873525E-01
  3.1187290970E+04  7.2588357561E-01  4.0183696075E+00  1.3595132575E-02  1.3301016152E-02  6.7149117080E-01
