#[MATERIAL DEFINITION FOR MC-GPU: interaction mean free path and sampling data from PENELOPE 2006]
#[MATERIAL NAME]
# AT_AG_SI2_7                                                   
#[NOMINAL DENSITY (g/cm^3)]
#   0.95738200
#[NUMBER OF DATA VALUES]
#   1495
#[MEAN FREE PATHS (cm) (ie, average distance between interactions)]
#[Energy (eV)     | Rayleigh        | Compton         | Photoelectric   | TOTAL (+pair prod) (cm) | Rayleigh: max cumul prob F^2]
  5.0000000000E+03  2.5341942337E+00  7.5926327538E+00  3.9828223857E-02  3.9010487301E-02  3.4052684783E-01
  5.0969899666E+03  2.5905118409E+00  7.5399186600E+00  4.2242071951E-02  4.1336435498E-02  3.4540881045E-01
  5.1939799331E+03  2.6473169455E+00  7.4893943748E+00  4.4752452952E-02  4.3751408591E-02  3.5021290297E-01
  5.2909698997E+03  2.7045969682E+00  7.4409274203E+00  4.7361310570E-02  4.6256863849E-02  3.5494350978E-01
  5.3879598662E+03  2.7623392012E+00  7.3943948473E+00  5.0070590372E-02  4.8854238037E-02  3.5960476069E-01
  5.4849498328E+03  2.8205308502E+00  7.3496824248E+00  5.2883312790E-02  5.1545966214E-02  3.6420064573E-01
  5.5819397993E+03  2.8791590757E+00  7.3066839131E+00  5.5813442818E-02  5.4344827599E-02  3.6873498500E-01
  5.6789297659E+03  2.9382110352E+00  7.2653004086E+00  5.8851139112E-02  5.7240957520E-02  3.7321138918E-01
  5.7759197324E+03  2.9976739239E+00  7.2254397547E+00  6.1998407070E-02  6.0235743920E-02  3.7763328141E-01
  5.8729096990E+03  3.0575350166E+00  7.1870160085E+00  6.5257254377E-02  6.3330550640E-02  3.8200392372E-01
  5.9698996656E+03  3.1177817176E+00  7.1499489581E+00  6.8629690966E-02  6.6526716718E-02  3.8632643291E-01
  6.0668896321E+03  3.1784021001E+00  7.1141636063E+00  7.2132732930E-02  6.9839621166E-02  3.9060367805E-01
  6.1638795987E+03  3.2393858276E+00  7.0795896466E+00  7.5761678597E-02  7.3264169736E-02  3.9483838710E-01
  6.2608695652E+03  3.3007240917E+00  7.0461611432E+00  7.9512135090E-02  7.6795586275E-02  3.9903317792E-01
  6.3578595318E+03  3.3624083603E+00  7.0138164150E+00  8.3386188850E-02  8.0435152660E-02  4.0319056374E-01
  6.4548494983E+03  3.4244403177E+00  6.9825257683E+00  8.7385929065E-02  8.4184132464E-02  4.0731282667E-01
  6.5518394649E+03  3.4868130254E+00  6.9522395553E+00  9.1513583207E-02  8.8043879206E-02  4.1140204271E-01
  6.6488294314E+03  3.5495075427E+00  6.9228773512E+00  9.5771172734E-02  9.2015509062E-02  4.1546021940E-01
  6.7458193980E+03  3.6125157162E+00  6.8943911639E+00  1.0016074800E-01  9.6100142410E-02  4.1948930753E-01
  6.8428093645E+03  3.6758296583E+00  6.8667360311E+00  1.0468440937E-01  1.0029891239E-01  4.2349112631E-01
  6.9397993311E+03  3.7394417789E+00  6.8398698242E+00  1.0934425974E-01  1.0461292025E-01  4.2746723633E-01
  7.0367892977E+03  3.8033457005E+00  6.8137557242E+00  1.1415665664E-01  1.0905624323E-01  4.3141912973E-01
  7.1337792642E+03  3.8675609509E+00  6.7884341886E+00  1.1913467433E-01  1.1363982277E-01  4.3534827029E-01
  7.2307692308E+03  3.9320561807E+00  6.7637917133E+00  1.2425802679E-01  1.1834409483E-01  4.3925605042E-01
  7.3277591973E+03  3.9968269915E+00  6.7397962183E+00  1.2952891783E-01  1.2317008266E-01  4.4314362775E-01
  7.4247491639E+03  4.0618691313E+00  6.7164175234E+00  1.3494955454E-01  1.2811877379E-01  4.4701208530E-01
  7.5217391304E+03  4.1271929273E+00  6.6936683534E+00  1.4052214720E-01  1.3319115064E-01  4.5086249520E-01
  7.6187290970E+03  4.1927982202E+00  6.6715325564E+00  1.4624890930E-01  1.3838814231E-01  4.5469587545E-01
  7.7157190635E+03  4.2586625597E+00  6.6499319579E+00  1.5213205743E-01  1.4371058807E-01  4.5851304590E-01
  7.8127090301E+03  4.3247821247E+00  6.6288426264E+00  1.5817381130E-01  1.4915932652E-01  4.6231477423E-01
  7.9096989967E+03  4.3911741044E+00  6.6083003307E+00  1.6437639367E-01  1.5473521531E-01  4.6610182696E-01
  8.0066889632E+03  4.4578281358E+00  6.5882648318E+00  1.7074484450E-01  1.6044149071E-01  4.6987490173E-01
  8.1036789298E+03  4.5247268194E+00  6.5686749201E+00  1.7731796335E-01  1.6631098106E-01  4.7363454277E-01
  8.2006688963E+03  4.5918737510E+00  6.5495288918E+00  1.8406125606E-01  1.7231181248E-01  4.7738127759E-01
  8.2976588629E+03  4.6592952358E+00  6.5308780344E+00  1.9097703233E-01  1.7844475666E-01  4.8111563170E-01
  8.3946488294E+03  4.7269561722E+00  6.5126180467E+00  1.9806760535E-01  1.8471034629E-01  4.8483802731E-01
  8.4916387960E+03  4.7948553524E+00  6.4947364721E+00  2.0533539430E-01  1.9110926490E-01  4.8854880506E-01
  8.5886287625E+03  4.8630353403E+00  6.4773179863E+00  2.1278413411E-01  1.9764344637E-01  4.9224831024E-01
  8.6856187291E+03  4.9314498248E+00  6.4602431364E+00  2.2041473947E-01  2.0431201613E-01  4.9593685736E-01
  8.7826086957E+03  5.0001017860E+00  6.4435106046E+00  2.2822954073E-01  2.1111545766E-01  4.9961465690E-01
  8.8795986622E+03  5.0690313554E+00  6.4271916457E+00  2.3623087161E-01  2.1805436614E-01  5.0328190779E-01
  8.9765886288E+03  5.1381900820E+00  6.4111753470E+00  2.4442106915E-01  2.2512893563E-01  5.0693882680E-01
  9.0735785953E+03  5.2075959523E+00  6.3954896135E+00  2.5282819830E-01  2.3236131334E-01  5.1058555996E-01
  9.1705685619E+03  5.2772672371E+00  6.3801550274E+00  2.6143877957E-01  2.3973828594E-01  5.1422213893E-01
  9.2675585284E+03  5.3471632246E+00  6.3650883541E+00  2.7024725725E-01  2.4725319407E-01  5.1784860088E-01
  9.3645484950E+03  5.4173321637E+00  6.3503632256E+00  2.7925603283E-01  2.5490648839E-01  5.2146499243E-01
  9.4615384615E+03  5.4877438992E+00  6.3359165522E+00  2.8846751141E-01  2.6269820778E-01  5.2507136922E-01
  9.5585284281E+03  5.5583922115E+00  6.3217325120E+00  2.9788410163E-01  2.7062845561E-01  5.2866779144E-01
  9.6555183946E+03  5.6293236277E+00  6.3078696748E+00  3.0750821565E-01  2.7869755724E-01  5.3225422905E-01
  9.7525083612E+03  5.7004736565E+00  6.2942258618E+00  3.1734226910E-01  2.8690522415E-01  5.3583057504E-01
  9.8494983278E+03  5.7719097540E+00  6.2808873616E+00  3.2738868110E-01  2.9525181352E-01  5.3939673171E-01
  9.9464882943E+03  5.8435818727E+00  6.2677764258E+00  3.3764987416E-01  3.0373700594E-01  5.4295261102E-01
  1.0043478261E+04  5.9155097927E+00  6.2549133052E+00  3.4815704907E-01  3.1238398372E-01  5.4649813419E-01
  1.0140468227E+04  5.9877089193E+00  6.2423054432E+00  3.5892167371E-01  3.2119956949E-01  5.5003322797E-01
  1.0237458194E+04  6.0601355918E+00  6.2298961872E+00  3.6991174237E-01  3.3015540365E-01  5.5355775893E-01
  1.0334448161E+04  6.1328709261E+00  6.2177648460E+00  3.8112976895E-01  3.3925174693E-01  5.5707154681E-01
  1.0431438127E+04  6.2058143842E+00  6.2057978523E+00  3.9257827115E-01  3.4848771983E-01  5.6057442066E-01
  1.0528428094E+04  6.2790886446E+00  6.1941108716E+00  4.0425977050E-01  3.5786377060E-01  5.6406621910E-01
  1.0625418060E+04  6.3525773077E+00  6.1825827237E+00  4.1617679231E-01  3.6737880164E-01  5.6754678999E-01
  1.0722408027E+04  6.4263828756E+00  6.1713023779E+00  4.2833186559E-01  3.7703307094E-01  5.7101597906E-01
  1.0819397993E+04  6.5004257025E+00  6.1601906325E+00  4.4072752310E-01  3.8682559806E-01  5.7447358033E-01
  1.0916387960E+04  6.5747741627E+00  6.1493005771E+00  4.5336630127E-01  3.9675635104E-01  5.7791937964E-01
  1.1013377926E+04  6.6493793607E+00  6.1385839907E+00  4.6625074017E-01  4.0682444636E-01  5.8135317272E-01
  1.1110367893E+04  6.7242827037E+00  6.1280688550E+00  4.7938338350E-01  4.1702959457E-01  5.8477476476E-01
  1.1207357860E+04  6.7994576625E+00  6.1177272943E+00  4.9278332671E-01  4.2738341521E-01  5.8818396864E-01
  1.1304347826E+04  6.8749282650E+00  6.1075726082E+00  5.0648112901E-01  4.3790612534E-01  5.9158057362E-01
  1.1401337793E+04  6.9506794927E+00  6.0975869674E+00  5.2043762893E-01  4.4856527190E-01  5.9496434978E-01
  1.1498327759E+04  7.0267300983E+00  6.0877790944E+00  5.3465544519E-01  4.5936024599E-01  5.9833507629E-01
  1.1595317726E+04  7.1030631585E+00  6.0781312212E+00  5.4913720042E-01  4.7029010135E-01  6.0169254191E-01
  1.1692307692E+04  7.1797068595E+00  6.0686572977E+00  5.6388552113E-01  4.8135422550E-01  6.0503654559E-01
  1.1789297659E+04  7.2566263090E+00  6.0593299250E+00  5.7890303769E-01  4.9255143253E-01  6.0836689068E-01
  1.1886287625E+04  7.3338765290E+00  6.0501778045E+00  5.9419238430E-01  5.0388126037E-01  6.1168334318E-01
  1.1983277592E+04  7.4113858569E+00  6.0411544880E+00  6.0975619895E-01  5.1534211265E-01  6.1498566978E-01
  1.2080267559E+04  7.4892563347E+00  6.0323126906E+00  6.2559712341E-01  5.2693387491E-01  6.1827364715E-01
  1.2177257525E+04  7.5673579018E+00  6.0235777516E+00  6.4171780320E-01  5.3865432390E-01  6.2154706171E-01
  1.2274247492E+04  7.6458626751E+00  6.0150354178E+00  6.5812088756E-01  5.5050393877E-01  6.2480570946E-01
  1.2371237458E+04  7.7245576545E+00  6.0065738915E+00  6.7480902943E-01  5.6247960151E-01  6.2804939574E-01
  1.2468227425E+04  7.8037110629E+00  5.9983207511E+00  6.9178488543E-01  5.7458268594E-01  6.3127793504E-01
  1.2565217391E+04  7.8830527780E+00  5.9901427720E+00  7.0909202600E-01  5.8683740362E-01  6.3449115083E-01
  1.2662207358E+04  7.9628166694E+00  5.9821450655E+00  7.2671424238E-01  5.9923135987E-01  6.3768888047E-01
  1.2759197324E+04  8.0428239554E+00  5.9742432101E+00  7.4463472655E-01  6.1174801668E-01  6.4087095392E-01
  1.2856187291E+04  8.1231947871E+00  5.9664865559E+00  7.6285619743E-01  6.2438726269E-01  6.4403716427E-01
  1.2953177258E+04  8.2038844954E+00  5.9588529010E+00  7.8138137776E-01  6.3714729389E-01  6.4718731214E-01
  1.3050167224E+04  8.2848604924E+00  5.9513249242E+00  8.0021299410E-01  6.5002634383E-01  6.5032120792E-01
  1.3147157191E+04  8.3662498377E+00  5.9439519871E+00  8.1935377681E-01  6.6302439676E-01  6.5343867155E-01
  1.3244147157E+04  8.4478316992E+00  5.9366422764E+00  8.3880645998E-01  6.7613751474E-01  6.5653953236E-01
  1.3341137124E+04  8.5299340936E+00  5.9295213573E+00  8.5857378148E-01  6.8936794737E-01  6.5962362888E-01
  1.3438127090E+04  8.6122351548E+00  5.9224620404E+00  8.7865848286E-01  7.0271047414E-01  6.6269080864E-01
  1.3535117057E+04  8.6949499494E+00  5.9155425908E+00  8.9906330938E-01  7.1616605305E-01  6.6574092402E-01
  1.3632107023E+04  8.7779881265E+00  5.9087270574E+00  9.1979100997E-01  7.2973205426E-01  6.6877381141E-01
  1.3729096990E+04  8.8613085834E+00  5.9019979142E+00  9.4087824485E-01  7.4342750133E-01  6.7178930945E-01
  1.3826086957E+04  8.9451020377E+00  5.8954198695E+00  9.6235374405E-01  7.5726874046E-01  6.7478726644E-01
  1.3923076923E+04  9.0290937842E+00  5.8888950638E+00  9.8416397869E-01  7.7121512664E-01  6.7776753997E-01
  1.4020066890E+04  9.1135867062E+00  5.8825236068E+00  1.0063117760E+00  7.8526888089E-01  6.8072999672E-01
  1.4117056856E+04  9.1983546903E+00  5.8762275765E+00  1.0287999673E+00  7.9942533863E-01  6.8367451228E-01
  1.4214046823E+04  9.2834502613E+00  5.8700219507E+00  1.0516313876E+00  8.1368341002E-01  6.8660097096E-01
  1.4311036789E+04  9.3690132511E+00  5.8639491038E+00  1.0748088760E+00  8.2804328248E-01  6.8950926531E-01
  1.4408026756E+04  9.4547789323E+00  5.8579234948E+00  1.0983352754E+00  8.4249946491E-01  6.9239928502E-01
  1.4505016722E+04  9.5410760258E+00  5.8520441010E+00  1.1222134325E+00  8.5705480204E-01  6.9527091427E-01
  1.4602006689E+04  9.6276585797E+00  5.8462339150E+00  1.1464461979E+00  8.7170397330E-01  6.9812404550E-01
  1.4698996656E+04  9.7145477056E+00  5.8404974956E+00  1.1710364260E+00  8.8644537828E-01  7.0095857987E-01
  1.4795986622E+04  9.8019664466E+00  5.8348977466E+00  1.1959869750E+00  9.0128052554E-01  7.0377442708E-01
  1.4892976589E+04  9.8895929630E+00  5.8293399017E+00  1.2213007069E+00  9.1620266423E-01  7.0657150514E-01
  1.4989966555E+04  9.9777052445E+00  5.8239005648E+00  1.2469804873E+00  9.3121415176E-01  7.0934974020E-01
  1.5086956522E+04  1.0066190340E+01  5.8185461926E+00  1.2730969197E+00  9.4634880150E-01  7.1210906610E-01
  1.5183946488E+04  1.0154885577E+01  5.8132310076E+00  1.2995954769E+00  9.6156957300E-01  7.1484941566E-01
  1.5280936455E+04  1.0244235758E+01  5.8080727062E+00  1.3264713992E+00  9.7687747645E-01  7.1757071828E-01
  1.5377926421E+04  1.0333809336E+01  5.8029542067E+00  1.3537276106E+00  9.9226351983E-01  7.2027291080E-01
  1.5474916388E+04  1.0423725461E+01  5.7979058131E+00  1.3813670389E+00  1.0077276401E+00  7.2295593807E-01
  1.5571906355E+04  1.0514192265E+01  5.7929794016E+00  1.4093926157E+00  1.0232714599E+00  7.2561975267E-01
  1.5668896321E+04  1.0604875183E+01  5.7880877262E+00  1.4378072765E+00  1.0388872206E+00  7.2826431475E-01
  1.5765886288E+04  1.0696028343E+01  5.7832935173E+00  1.4666139607E+00  1.0545773469E+00  7.3088959180E-01
  1.5862876254E+04  1.0787622951E+01  5.7785876961E+00  1.4958156115E+00  1.0703393982E+00  7.3349555698E-01
  1.5959866221E+04  1.0879436421E+01  5.7739143542E+00  1.5254151756E+00  1.0861672925E+00  7.3608217914E-01
  1.6056856187E+04  1.0971831151E+01  5.7693597541E+00  1.5554156040E+00  1.1020656837E+00  7.3864942936E-01
  1.6153846154E+04  1.1064575011E+01  5.7648664044E+00  1.5858198509E+00  1.1180283075E+00  7.4119728598E-01
  1.6250836120E+04  1.1157540605E+01  5.7604034211E+00  1.6166308746E+00  1.1340506442E+00  7.4372573444E-01
  1.6347826087E+04  1.1251179661E+01  5.7560744856E+00  1.6478516369E+00  1.1501393943E+00  7.4623476705E-01
  1.6444816054E+04  1.1345094574E+01  5.7517859766E+00  1.6794851035E+00  1.1662848768E+00  7.4872438279E-01
  1.6541806020E+04  1.1439239015E+01  5.7475269274E+00  1.7115342437E+00  1.1824840331E+00  7.5119458978E-01
  1.6638795987E+04  1.1534118494E+01  5.7434092217E+00  1.7440020302E+00  1.1987450436E+00  7.5364540726E-01
  1.6735785953E+04  1.1629226602E+01  5.7393183735E+00  1.7768914399E+00  1.2150556932E+00  7.5607683303E-01
  1.6832775920E+04  1.1724599093E+01  5.7352619390E+00  1.8102054527E+00  1.2314145711E+00  7.5848886792E-01
  1.6929765886E+04  1.1820691010E+01  5.7313369035E+00  1.8439470526E+00  1.2478292372E+00  7.6088151947E-01
  1.7026755853E+04  1.1917014787E+01  5.7274369536E+00  1.8781192269E+00  1.2642874585E+00  7.6325480172E-01
  1.7123745819E+04  1.2013612170E+01  5.7235706445E+00  1.9127249666E+00  1.2807879976E+00  7.6560873500E-01
  1.7220735786E+04  1.2110939198E+01  5.7198317967E+00  1.9477672662E+00  1.2973388294E+00  7.6794334573E-01
  1.7317725753E+04  1.2208501444E+01  5.7161163694E+00  1.9832491239E+00  1.3139271923E+00  7.7025866618E-01
  1.7414715719E+04  1.2306318436E+01  5.7124281709E+00  2.0191735412E+00  1.3305514024E+00  7.7255473426E-01
  1.7511705686E+04  1.2404903175E+01  5.7088694040E+00  2.0555765985E+00  1.3472353224E+00  7.7483159333E-01
  1.7608695652E+04  1.2503726610E+01  5.7053324919E+00  2.0926738762E+00  1.3640548977E+00  7.7708929199E-01
  1.7705685619E+04  1.2602788000E+01  5.7018171812E+00  2.1302311573E+00  1.3809049012E+00  7.7932788385E-01
  1.7802675585E+04  1.2702617000E+01  5.6984264667E+00  2.1682515752E+00  1.3977958162E+00  7.8154742740E-01
  1.7899665552E+04  1.2802720609E+01  5.6950624841E+00  2.2067382678E+00  1.4147141051E+00  7.8374797312E-01
  1.7996655518E+04  1.2903065742E+01  5.6917186500E+00  2.2456943767E+00  1.4316568812E+00  7.8592955702E-01
  1.8093645485E+04  1.3004103875E+01  5.6884809741E+00  2.2851230474E+00  1.4486332349E+00  7.8809223265E-01
  1.8190635452E+04  1.3105504370E+01  5.6852846915E+00  2.3250274296E+00  1.4656331967E+00  7.9023605882E-01
  1.8287625418E+04  1.3207150018E+01  5.6821071875E+00  2.3654106767E+00  1.4826518308E+00  7.9236109919E-01
  1.8384615385E+04  1.3309380964E+01  5.6790119600E+00  2.4062759462E+00  1.4996958373E+00  7.9446742204E-01
  1.8481605351E+04  1.3412095028E+01  5.6759784301E+00  2.4476263995E+00  1.5167608225E+00  7.9655510006E-01
  1.8578595318E+04  1.3515057929E+01  5.6729623861E+00  2.4894652017E+00  1.5338388085E+00  7.9862421019E-01
  1.8675585284E+04  1.3618463796E+01  5.6699993330E+00  2.5317955221E+00  1.5509329721E+00  8.0067483341E-01
  1.8772575251E+04  1.3722508106E+01  5.6671238709E+00  2.5746205334E+00  1.5680467712E+00  8.0270705455E-01
  1.8869565217E+04  1.3826804994E+01  5.6642646739E+00  2.6179434127E+00  1.5851680590E+00  8.0472096211E-01
  1.8966555184E+04  1.3931366284E+01  5.6614238151E+00  2.6617673405E+00  1.6022952146E+00  8.0671664807E-01
  1.9063545151E+04  1.4036757505E+01  5.6587019809E+00  2.7060955012E+00  1.6194421020E+00  8.0869420832E-01
  1.9160535117E+04  1.4142405102E+01  5.6559952582E+00  2.7509310831E+00  1.6365911391E+00  8.1065375651E-01
  1.9257525084E+04  1.4248308396E+01  5.6533034872E+00  2.7962772782E+00  1.6537404180E+00  8.1259538094E-01
  1.9354515050E+04  1.4354855459E+01  5.6506944694E+00  2.8421372824E+00  1.6708992599E+00  8.1451915987E-01
  1.9451505017E+04  1.4461870470E+01  5.6481360727E+00  2.8885142951E+00  1.6880610276E+00  8.1642517560E-01
  1.9548494983E+04  1.4569145045E+01  5.6455915508E+00  2.9354115196E+00  1.7052179459E+00  8.1831351433E-01
  1.9645484950E+04  1.4676812492E+01  5.6430837383E+00  2.9828321631E+00  1.7223721763E+00  8.2018426594E-01
  1.9742474916E+04  1.4785211600E+01  5.6406697293E+00  3.0307794360E+00  1.7395322214E+00  8.2203752378E-01
  1.9839464883E+04  1.4893874196E+01  5.6382685758E+00  3.0792565530E+00  1.7566825244E+00  8.2387338455E-01
  1.9936454849E+04  1.5002799625E+01  5.6358801469E+00  3.1282667320E+00  1.7738213287E+00  8.2569194807E-01
  2.0033444816E+04  1.5112436535E+01  5.6335794130E+00  3.1778407302E+00  1.7909695457E+00  8.2749331713E-01
  2.0130434783E+04  1.5222502911E+01  5.6313178579E+00  3.2280079895E+00  1.8081249545E+00  8.2927759732E-01
  2.0227424749E+04  1.5332836103E+01  5.6290680743E+00  3.2787201418E+00  1.8252642932E+00  8.3104489572E-01
  2.0324414716E+04  1.5443549362E+01  5.6268487235E+00  3.3299804463E+00  1.8423895235E+00  8.3279529934E-01
  2.0421404682E+04  1.5555029872E+01  5.6247227293E+00  3.3817921662E+00  1.8595115669E+00  8.3452890534E-01
  2.0518394649E+04  1.5666781178E+01  5.6226076062E+00  3.4341585683E+00  1.8766131114E+00  8.3624582082E-01
  2.0615384615E+04  1.5778802652E+01  5.6205032473E+00  3.4870829231E+00  1.8936925576E+00  8.3794615541E-01
  2.0712374582E+04  1.5891447381E+01  5.6184667524E+00  3.5405685048E+00  1.9107600599E+00  8.3963002108E-01
  2.0809364548E+04  1.6004625018E+01  5.6164823418E+00  3.5946185913E+00  1.9278113445E+00  8.4129753202E-01
  2.0906354515E+04  1.6118076792E+01  5.6145078549E+00  3.6492364640E+00  1.9448363922E+00  8.4294880446E-01
  2.1003344482E+04  1.6231802091E+01  5.6125431963E+00  3.7044254082E+00  1.9618337023E+00  8.4458395653E-01
  2.1100334448E+04  1.6346356253E+01  5.6106765106E+00  3.7601887126E+00  1.9788209221E+00  8.4620310813E-01
  2.1197324415E+04  1.6461246199E+01  5.6088281797E+00  3.8165296697E+00  1.9957799570E+00  8.4780638079E-01
  2.1294314381E+04  1.6576413627E+01  5.6069888914E+00  3.8734515754E+00  2.0127074113E+00  8.4939389755E-01
  2.1391304348E+04  1.6691962498E+01  5.6051749743E+00  3.9309577294E+00  2.0296055826E+00  8.5096578218E-01
  2.1488294314E+04  1.6808298167E+01  5.6034492550E+00  3.9890514348E+00  2.0464876296E+00  8.5252214446E-01
  2.1585284281E+04  1.6924915253E+01  5.6017318352E+00  4.0477359984E+00  2.0633344750E+00  8.5406308941E-01
  2.1682274247E+04  1.7041813168E+01  5.6000226380E+00  4.1070147305E+00  2.0801447941E+00  8.5558872437E-01
  2.1779264214E+04  1.7159219023E+01  5.5983566989E+00  4.1668909450E+00  2.0969256140E+00  8.5709915886E-01
  2.1876254181E+04  1.7277292975E+01  5.5967578045E+00  4.2273679591E+00  2.1136817384E+00  8.5859450437E-01
  2.1973244147E+04  1.7395651678E+01  5.5951664369E+00  4.2884490939E+00  2.1303980125E+00  8.6007487428E-01
  2.2070234114E+04  1.7514294558E+01  5.5935825277E+00  4.3501376737E+00  2.1470732126E+00  8.6154038368E-01
  2.2167224080E+04  1.7633531874E+01  5.5920531172E+00  4.4124370264E+00  2.1637178727E+00  8.6299114926E-01
  2.2264214047E+04  1.7753358230E+01  5.5905764224E+00  4.4753504834E+00  2.1803308480E+00  8.6442728914E-01
  2.2361204013E+04  1.7873472673E+01  5.5891065339E+00  4.5388829642E+00  2.1969000912E+00  8.6584892271E-01
  2.2458193980E+04  1.7993874640E+01  5.5876433912E+00  4.6033433032E+00  2.2134951003E+00  8.6725616524E-01
  2.2555183946E+04  1.8114916709E+01  5.5862395606E+00  4.6684351703E+00  2.2300573475E+00  8.6864912510E-01
  2.2652173913E+04  1.8236509236E+01  5.5848807086E+00  4.7341619939E+00  2.2465824882E+00  8.7002791170E-01
  2.2749163880E+04  1.8358393182E+01  5.5835279908E+00  4.8005272064E+00  2.2630594558E+00  8.7139263614E-01
  2.2846153846E+04  1.8480568001E+01  5.5821813536E+00  4.8675342436E+00  2.2794872070E+00  8.7274341105E-01
  2.2943143813E+04  1.8603386977E+01  5.5808926199E+00  4.9351865453E+00  2.2958788923E+00  8.7408035049E-01
  2.3040133779E+04  1.8726759083E+01  5.5796475027E+00  5.0034875549E+00  2.3122300989E+00  8.7540356977E-01
  2.3137123746E+04  1.8850425940E+01  5.5784078919E+00  5.0724407194E+00  2.3285295869E+00  8.7671318541E-01
  2.3234113712E+04  1.8974387014E+01  5.5771737404E+00  5.1420494897E+00  2.3447764105E+00  8.7800931493E-01
  2.3331103679E+04  1.9098953969E+01  5.5759900538E+00  5.2123173202E+00  2.3609824963E+00  8.7929207681E-01
  2.3428093645E+04  1.9224118702E+01  5.5748547939E+00  5.2832476691E+00  2.3771468207E+00  8.8056158765E-01
  2.3525083612E+04  1.9349581516E+01  5.5737244538E+00  5.3548439981E+00  2.3932562572E+00  8.8181795666E-01
  2.3622073579E+04  1.9475341888E+01  5.5725989922E+00  5.4271097727E+00  2.4093099543E+00  8.8306129272E-01
  2.3719063545E+04  1.9601626863E+01  5.5715107063E+00  5.5000484619E+00  2.4253166958E+00  8.8429170599E-01
  2.3816053512E+04  1.9728596911E+01  5.5704816403E+00  5.5736635384E+00  2.4412826364E+00  8.8550930773E-01
  2.3913043478E+04  1.9855868365E+01  5.5694569454E+00  5.6479584786E+00  2.4571908828E+00  8.8671421023E-01
  2.4010033445E+04  1.9983440714E+01  5.5684365857E+00  5.7229367623E+00  2.4730406744E+00  8.8790652670E-01
  2.4107023411E+04  2.0111412773E+01  5.5674344308E+00  5.7986018729E+00  2.4888355735E+00  8.8908637113E-01
  2.4204013378E+04  2.0240200461E+01  5.5665080940E+00  5.8749572976E+00  2.5045930202E+00  8.9025385821E-01
  2.4301003344E+04  2.0369292875E+01  5.5655856150E+00  5.9520065269E+00  2.5202903150E+00  8.9140910319E-01
  2.4397993311E+04  2.0498689515E+01  5.5646669625E+00  6.0297530550E+00  2.5359267843E+00  8.9255221829E-01
  2.4494983278E+04  2.0628389886E+01  5.5637521053E+00  6.1082003797E+00  2.5515017765E+00  8.9368330970E-01
  2.4591973244E+04  2.0758934092E+01  5.5629151331E+00  6.1873520022E+00  2.5670387118E+00  8.9480248384E-01
  2.4688963211E+04  2.0889859420E+01  5.5620916230E+00  6.2672114272E+00  2.5825166090E+00  8.9590984804E-01
  2.4785953177E+04  2.1021092301E+01  5.5612714629E+00  6.3477821630E+00  2.5979316385E+00  8.9700551036E-01
  2.4882943144E+04  2.1152632247E+01  5.5604546261E+00  6.4290677215E+00  2.6132832308E+00  8.9808957958E-01
  2.4979933110E+04  2.1284800305E+01  5.5596845767E+00  6.5110716178E+00  2.6285854624E+00  8.9916216504E-01
  2.5076923077E+04  2.1417569603E+01  5.5589569164E+00  6.5939818807E+00  2.6438664107E+00  9.0022337658E-01
  2.5173913043E+04  2.1550649764E+01  5.5582321597E+00  6.6776701263E+00  2.6590902937E+00  9.0127332443E-01
  2.5270903010E+04  2.1684040316E+01  5.5575102840E+00  6.7620923098E+00  2.6742488526E+00  9.0231211829E-01
  2.5367892977E+04  2.1817797936E+01  5.5567989149E+00  6.8472520105E+00  2.6893442694E+00  9.0333986208E-01
  2.5464882943E+04  2.1952418293E+01  5.5561638708E+00  6.9331528114E+00  2.7043992730E+00  9.0435665769E-01
  2.5561872910E+04  2.2087352783E+01  5.5555313130E+00  7.0197982992E+00  2.7193879911E+00  9.0536260767E-01
  2.5658862876E+04  2.2222600943E+01  5.5549012224E+00  7.1071920639E+00  2.7343100004E+00  9.0635781512E-01
  2.5755852843E+04  2.2358162314E+01  5.5542735801E+00  7.1953376993E+00  2.7491648960E+00  9.0734238363E-01
  2.5852842809E+04  2.2494390592E+01  5.5536950508E+00  7.2842388029E+00  2.7639692015E+00  9.0831641718E-01
  2.5949832776E+04  2.2631184421E+01  5.5531515380E+00  7.3738989754E+00  2.7787178569E+00  9.0928002005E-01
  2.6046822742E+04  2.2768295143E+01  5.5526101056E+00  7.4643218214E+00  2.7933986906E+00  9.1023329677E-01
  2.6143812709E+04  2.2905722308E+01  5.5520707382E+00  7.5555109488E+00  2.8080113661E+00  9.1117635155E-01
  2.6240802676E+04  2.3043466729E+01  5.5515335849E+00  7.6474699692E+00  2.8225556258E+00  9.1210928382E-01
  2.6337792642E+04  2.3182124279E+01  5.5510761177E+00  7.7402024976E+00  2.8370603401E+00  9.1303219043E-01
  2.6434782609E+04  2.3321101886E+01  5.5506203695E+00  7.8337121526E+00  2.8514963735E+00  9.1394516864E-01
  2.6531772575E+04  2.3460399111E+01  5.5501663276E+00  7.9280025563E+00  2.8658634536E+00  9.1484831612E-01
  2.6628762542E+04  2.3600015516E+01  5.5497139795E+00  8.0230773343E+00  2.8801613236E+00  9.1574173080E-01
  2.6725752508E+04  2.3740150743E+01  5.5492891203E+00  8.1189401155E+00  2.8943997380E+00  9.1662551088E-01
  2.6822742475E+04  2.3880998939E+01  5.5489162254E+00  8.2155945327E+00  2.9085882779E+00  9.1749975469E-01
  2.6919732441E+04  2.4022169867E+01  5.5485447013E+00  8.3130442216E+00  2.9227073003E+00  9.1836456065E-01
  2.7016722408E+04  2.4163663099E+01  5.5481745382E+00  8.4112928219E+00  2.9367566069E+00  9.1922003162E-01
  2.7113712375E+04  2.4305478210E+01  5.5478057261E+00  8.5103439763E+00  2.9507360142E+00  9.2006626722E-01
  2.7210702341E+04  2.4447963029E+01  5.5474826137E+00  8.6102013313E+00  2.9646631426E+00  9.2090335491E-01
  2.7307692308E+04  2.4591010688E+01  5.5471909320E+00  8.7108685366E+00  2.9785324895E+00  9.2173138247E-01
  2.7404682274E+04  2.4734383714E+01  5.5469002997E+00  8.8123523018E+00  2.9923321763E+00  9.2255043816E-01
  2.7501672241E+04  2.4878081691E+01  5.5466107094E+00  8.9146663227E+00  3.0060631991E+00  9.2336061061E-01
  2.7598662207E+04  2.5022104205E+01  5.5463221536E+00  9.0178015003E+00  3.0197239479E+00  9.2416198876E-01
  2.7695652174E+04  2.5166896815E+01  5.5460907696E+00  9.1217615016E+00  3.0333375918E+00  9.2495466180E-01
  2.7792642140E+04  2.5312151991E+01  5.5458771366E+00  9.2265499967E+00  3.0468880972E+00  9.2573871909E-01
  2.7889632107E+04  2.5457735125E+01  5.5456642561E+00  9.3321706592E+00  3.0603683898E+00  9.2651425008E-01
  2.7986622074E+04  2.5603645815E+01  5.5454521228E+00  9.4386271661E+00  3.0737783990E+00  9.2728134428E-01
  2.8083612040E+04  2.5749883658E+01  5.5452407314E+00  9.5459231978E+00  3.0871180668E+00  9.2804009117E-01
  2.8180602007E+04  2.5896941864E+01  5.5450915517E+00  9.6540624380E+00  3.1004136402E+00  9.2879058018E-01
  2.8277591973E+04  2.6044411845E+01  5.5449529829E+00  9.7630485737E+00  3.1136434174E+00  9.2953290059E-01
  2.8374581940E+04  2.6192212334E+01  5.5448148920E+00  9.8728852954E+00  3.1268030697E+00  9.3026714152E-01
  2.8471571906E+04  2.6340342937E+01  5.5446772757E+00  9.9835762968E+00  3.1398925809E+00  9.3099339187E-01
  2.8568561873E+04  2.6488803264E+01  5.5445401308E+00  1.0095125275E+01  3.1529119461E+00  9.3171174028E-01
  2.8665551839E+04  2.6638084665E+01  5.5444640933E+00  1.0207535930E+01  3.1658878874E+00  9.3242227266E-01
  2.8762541806E+04  2.6787775977E+01  5.5443977704E+00  1.0320811967E+01  3.1787981664E+00  9.3312506724E-01
  2.8859531773E+04  2.6937800299E+01  5.5443316715E+00  1.0434957091E+01  3.1916386531E+00  9.3382020105E-01
  2.8956521739E+04  2.7088157249E+01  5.5442657952E+00  1.0549975014E+01  3.2044093799E+00  9.3450775143E-01
  2.9053511706E+04  2.7238846446E+01  5.5442001399E+00  1.0665869448E+01  3.2171103889E+00  9.3518779588E-01
  2.9150501672E+04  2.7390308631E+01  5.5441886153E+00  1.0782644111E+01  3.2297661605E+00  9.3586041209E-01
  2.9247491639E+04  2.7542227037E+01  5.5441918743E+00  1.0900302723E+01  3.2423592828E+00  9.3652567781E-01
  2.9344481605E+04  2.7694480908E+01  5.5441951225E+00  1.1018849007E+01  3.2548831613E+00  9.3718367083E-01
  2.9441471572E+04  2.7847069871E+01  5.5441983600E+00  1.1138286690E+01  3.2673378710E+00  9.3783446891E-01
  2.9538461538E+04  2.7999993556E+01  5.5442015868E+00  1.1258619502E+01  3.2797234957E+00  9.3847814976E-01
  2.9635451505E+04  2.8153594303E+01  5.5442463513E+00  1.1379851176E+01  3.2920594618E+00  9.3911479098E-01
  2.9732441472E+04  2.8307744811E+01  5.5443166712E+00  1.1501985448E+01  3.3043387420E+00  9.3974446999E-01
  2.9829431438E+04  2.8462233186E+01  5.5443867631E+00  1.1625026059E+01  3.3165495153E+00  9.4036726403E-01
  2.9926421405E+04  2.8617059066E+01  5.5444566282E+00  1.1748976750E+01  3.3286918941E+00  9.4098325009E-01
  3.0023411371E+04  2.8772222093E+01  5.5445262682E+00  1.1873996526E+01  3.3407782886E+00  9.4159250490E-01
  3.0120401338E+04  2.8927919734E+01  5.5446194561E+00  1.2000429018E+01  3.3528461982E+00  9.4219510485E-01
  3.0217391304E+04  2.9084307030E+01  5.5447543850E+00  1.2127794486E+01  3.3648658753E+00  9.4279112384E-01
  3.0314381271E+04  2.9241034549E+01  5.5448888848E+00  1.2256096782E+01  3.3768174404E+00  9.4338062981E-01
  3.0411371237E+04  2.9398101937E+01  5.5450229582E+00  1.2385339764E+01  3.3887010379E+00  9.4396368989E-01
  3.0508361204E+04  2.9555508846E+01  5.5451566079E+00  1.2515527294E+01  3.4005168194E+00  9.4454037135E-01
  3.0605351171E+04  2.9713262320E+01  5.5452907143E+00  1.2646663234E+01  3.4122653722E+00  9.4511074147E-01
  3.0702341137E+04  2.9871891452E+01  5.5454877723E+00  1.2778751452E+01  3.4239776461E+00  9.4567486758E-01
  3.0799331104E+04  3.0030863118E+01  5.5456842158E+00  1.2911795820E+01  3.4356228487E+00  9.4623281695E-01
  3.0896321070E+04  3.0190176976E+01  5.5458800485E+00  1.3045800211E+01  3.4472011531E+00  9.4678465678E-01
  3.0993311037E+04  3.0349832685E+01  5.5460752744E+00  1.3180768504E+01  3.4587127381E+00  9.4733045415E-01
  3.1090301003E+04  3.0509829904E+01  5.5462698971E+00  1.3316704579E+01  3.4701577883E+00  9.4787027600E-01
  3.1187290970E+04  3.0670477226E+01  5.5464999524E+00  1.3453612322E+01  3.4815546714E+00  9.4840418907E-01
