#[MATERIAL DEFINITION FOR MC-GPU: interaction mean free path and sampling data from PENELOPE 2006]
#[MATERIAL NAME]
# AT_AG_SI5_10                                                  
#[NOMINAL DENSITY (g/cm^3)]
#   1.02955000
#[NUMBER OF DATA VALUES]
#   1495
#[MEAN FREE PATHS (cm) (ie, average distance between interactions)]
#[Energy (eV)     | Rayleigh        | Compton         | Photoelectric   | TOTAL (+pair prod) (cm) | Rayleigh: max cumul prob F^2]
  5.0000000000E+03  1.9901942425E+00  7.5796782363E+00  2.7271670808E-02  2.6807867408E-02  3.4370023139E-01
  5.0969899666E+03  2.0344652952E+00  7.5121889706E+00  2.8903890851E-02  2.8391294039E-02  3.4862413479E-01
  5.1939799331E+03  2.0791981477E+00  7.4477529151E+00  3.0600156505E-02  3.0034724874E-02  3.5345047010E-01
  5.2909698997E+03  2.1243826580E+00  7.3861808099E+00  3.2361708494E-02  3.1739149808E-02  3.5818390627E-01
  5.3879598662E+03  2.1700085406E+00  7.3272974887E+00  3.4189787707E-02  3.3505547967E-02  3.6282884084E-01
  5.4849498328E+03  2.2160653983E+00  7.2709406186E+00  3.6086680086E-02  3.5335889255E-02  3.6738971462E-01
  5.5819397993E+03  2.2625427553E+00  7.2169595723E+00  3.8065312064E-02  3.7242310832E-02  3.7187081613E-01
  5.6789297659E+03  2.3094300898E+00  7.1652144195E+00  4.0115427219E-02  3.9214708222E-02  3.7627615354E-01
  5.7759197324E+03  2.3567168675E+00  7.1155750206E+00  4.2238582580E-02  4.1254307925E-02  3.8060962413E-01
  5.8729096990E+03  2.4043925749E+00  7.0679202122E+00  4.4436176382E-02  4.3362170382E-02  3.8487502830E-01
  5.9698996656E+03  2.4524467590E+00  7.0221370662E+00  4.6709186398E-02  4.5538942209E-02  3.8907593178E-01
  6.0668896321E+03  2.5008693575E+00  6.9781198299E+00  4.9067449480E-02  4.7793663669E-02  3.9321572885E-01
  6.1638795987E+03  2.5496512577E+00  6.9357686904E+00  5.1508430106E-02  5.0123583699E-02  3.9729773127E-01
  6.2608695652E+03  2.5987842714E+00  6.8949894392E+00  5.4029772804E-02  5.2526133682E-02  4.0132507574E-01
  6.3578595318E+03  2.6482604004E+00  6.8556940429E+00  5.6632811628E-02  5.5002236898E-02  4.0530072317E-01
  6.4548494983E+03  2.6980832062E+00  6.8178425867E+00  5.9318881579E-02  5.7552810302E-02  4.0922747626E-01
  6.5518394649E+03  2.7482466329E+00  6.7813653557E+00  6.2089318590E-02  6.0178750884E-02  4.1310800000E-01
  6.6488294314E+03  2.7987308076E+00  6.7461457048E+00  6.4945459510E-02  6.2880929430E-02  4.1694486572E-01
  6.7458193980E+03  2.8495279802E+00  6.7121155877E+00  6.7888642082E-02  6.5660209083E-02  4.2074045427E-01
  6.8428093645E+03  2.9006306325E+00  6.6792113134E+00  7.0920204936E-02  6.8517437031E-02  4.2449701751E-01
  6.9397993311E+03  2.9520315082E+00  6.6473732447E+00  7.4041487567E-02  7.1453444176E-02  4.2821670845E-01
  7.0367892977E+03  3.0037246959E+00  6.6165496236E+00  7.7265473310E-02  7.4479864645E-02  4.3190159092E-01
  7.1337792642E+03  3.0557344617E+00  6.5868071819E+00  8.0602441514E-02  7.7605743222E-02  4.3555362951E-01
  7.2307692308E+03  3.1080238218E+00  6.5579739453E+00  8.4035426503E-02  8.0814759968E-02  4.3917458944E-01
  7.3277591973E+03  3.1605877778E+00  6.5300033504E+00  8.7565842792E-02  8.4107726184E-02  4.4276612625E-01
  7.4247491639E+03  3.2134215397E+00  6.5028517519E+00  9.1195106332E-02  8.7485434805E-02  4.4632983963E-01
  7.5217391304E+03  3.2665369956E+00  6.4765412432E+00  9.4924634481E-02  9.0948685233E-02  4.4986727882E-01
  7.6187290970E+03  3.3199335237E+00  6.4510494277E+00  9.8755845993E-02  9.4498244095E-02  4.5337991262E-01
  7.7157190635E+03  3.3735854204E+00  6.4262590090E+00  1.0269016100E-01  9.8134816820E-02  4.5686901465E-01
  7.8127090301E+03  3.4274885048E+00  6.4021358733E+00  1.0672900097E-01  1.0185911951E-01  4.6033578289E-01
  7.9096989967E+03  3.4816617662E+00  6.3787369961E+00  1.1087378875E-01  1.0567189373E-01  4.6378138659E-01
  8.0066889632E+03  3.5360930147E+00  6.3560030323E+00  1.1512753738E-01  1.0957524638E-01  4.6720696820E-01
  8.1036789298E+03  3.5907626082E+00  6.3338424941E+00  1.1951231533E-01  1.1358843783E-01  4.7061356878E-01
  8.2006688963E+03  3.6456741547E+00  6.3122547571E+00  1.2400880804E-01  1.1769326364E-01  4.7400207591E-01
  8.2976588629E+03  3.7008526707E+00  6.2913178708E+00  1.2861848511E-01  1.2189043188E-01  4.7737334946E-01
  8.3946488294E+03  3.7562605450E+00  6.2708754241E+00  1.3334281769E-01  1.2618047950E-01  4.8072823637E-01
  8.4916387960E+03  3.8118965204E+00  6.2509105548E+00  1.3818337836E-01  1.3056409164E-01  4.8406755108E-01
  8.5886287625E+03  3.8677991817E+00  6.2315498534E+00  1.4314301826E-01  1.3504318228E-01  4.8739196716E-01
  8.6856187291E+03  3.9239229370E+00  6.2126163180E+00  1.4822183972E-01  1.3961695484E-01  4.9070210204E-01
  8.7826086957E+03  3.9802705108E+00  6.1941096638E+00  1.5342132327E-01  1.4428595094E-01  4.9399856821E-01
  8.8795986622E+03  4.0368750128E+00  6.1761346710E+00  1.5874295096E-01  1.4905079426E-01  4.9728196694E-01
  8.9765886288E+03  4.0936927833E+00  6.1585294975E+00  1.6418820636E-01  1.5391183667E-01  5.0055280045E-01
  9.0735785953E+03  4.1507385684E+00  6.1413359902E+00  1.6978203512E-01  1.5889014195E-01  5.0381150107E-01
  9.1705685619E+03  4.2080244265E+00  6.1245828350E+00  1.7551146133E-01  1.6397337026E-01  5.0705849951E-01
  9.2675585284E+03  4.2655171437E+00  6.1081511778E+00  1.8137075924E-01  1.6915545816E-01  5.1029422195E-01
  9.3645484950E+03  4.3232523496E+00  6.0921452502E+00  1.8736146264E-01  1.7443696122E-01  5.1351901873E-01
  9.4615384615E+03  4.3812049487E+00  6.0764749652E+00  1.9348510709E-01  1.7981817050E-01  5.1673318029E-01
  9.5585284281E+03  4.4393702372E+00  6.0611193342E+00  1.9974439492E-01  1.8530043153E-01  5.1993699786E-01
  9.6555183946E+03  4.4977784864E+00  6.0461572983E+00  2.0614019336E-01  1.9088363341E-01  5.2313075844E-01
  9.7525083612E+03  4.5563842565E+00  6.0314495636E+00  2.1267364697E-01  1.9656754085E-01  5.2631468129E-01
  9.8494983278E+03  4.6152314768E+00  6.0171121170E+00  2.1934630089E-01  2.0235265253E-01  5.2948894771E-01
  9.9464882943E+03  4.6742852245E+00  6.0030397279E+00  2.2615970197E-01  2.0823906426E-01  5.3265374236E-01
  1.0043478261E+04  4.7335577727E+00  5.9892597271E+00  2.3313033494E-01  2.1423968923E-01  5.3580926380E-01
  1.0140468227E+04  4.7930568193E+00  5.9757803366E+00  2.4026443479E-01  2.2035857033E-01  5.3895563485E-01
  1.0237458194E+04  4.8527551607E+00  5.9625285933E+00  2.4754567428E-01  2.2658056809E-01  5.4209291397E-01
  1.0334448161E+04  4.9127009364E+00  5.9496054661E+00  2.5497564675E-01  2.3290611365E-01  5.4522116455E-01
  1.0431438127E+04  4.9728330004E+00  5.9368660050E+00  2.6255594743E-01  2.3933501044E-01  5.4834045496E-01
  1.0528428094E+04  5.0332237614E+00  5.9244561783E+00  2.7028817342E-01  2.4586778571E-01  5.5145085834E-01
  1.0625418060E+04  5.0938034116E+00  5.9122229980E+00  2.7817392370E-01  2.5250412527E-01  5.5455245239E-01
  1.0722408027E+04  5.1546316841E+00  5.9002774845E+00  2.8621479907E-01  2.5924444499E-01  5.5764529767E-01
  1.0819397993E+04  5.2156611550E+00  5.8885206548E+00  2.9441240218E-01  2.6608849337E-01  5.6072936540E-01
  1.0916387960E+04  5.2769310548E+00  5.8770179151E+00  3.0276833748E-01  2.7303652267E-01  5.6380461374E-01
  1.1013377926E+04  5.3384122616E+00  5.8657094195E+00  3.1128421123E-01  2.8008832924E-01  5.6687100686E-01
  1.1110367893E+04  5.4001281373E+00  5.8546292440E+00  3.1996163146E-01  2.8724402119E-01  5.6992851434E-01
  1.1207357860E+04  5.4620626420E+00  5.8437428345E+00  3.2881762573E-01  2.9451578669E-01  5.7297711099E-01
  1.1304347826E+04  5.5242290626E+00  5.8330662389E+00  3.3787986951E-01  3.0192425965E-01  5.7601677634E-01
  1.1401337793E+04  5.5866180412E+00  5.8225773045E+00  3.4711109014E-01  3.0943787136E-01  5.7904746068E-01
  1.1498327759E+04  5.6492397844E+00  5.8122864353E+00  3.5651295649E-01  3.1705655381E-01  5.8206906552E-01
  1.1595317726E+04  5.7120839950E+00  5.8021718822E+00  3.6608713948E-01  3.2478005652E-01  5.8508149514E-01
  1.1692307692E+04  5.7751660358E+00  5.7922499306E+00  3.7583531207E-01  3.3260829709E-01  5.8808465950E-01
  1.1789297659E+04  5.8384657867E+00  5.7824880736E+00  3.8575914922E-01  3.4054089420E-01  5.9107847407E-01
  1.1886287625E+04  5.9020132873E+00  5.7729191973E+00  3.9586032793E-01  3.4857782560E-01  5.9406285963E-01
  1.1983277592E+04  5.9657684064E+00  5.7634896605E+00  4.0614052716E-01  3.5671849602E-01  5.9703773137E-01
  1.2080267559E+04  6.0297867054E+00  5.7542589130E+00  4.1660142787E-01  3.6496303683E-01  6.0000296576E-01
  1.2177257525E+04  6.0939965099E+00  5.7451425387E+00  4.2724471296E-01  3.7331053593E-01  6.0295843587E-01
  1.2274247492E+04  6.1584911125E+00  5.7362358041E+00  4.3807206730E-01  3.8176139279E-01  6.0590402062E-01
  1.2371237458E+04  6.2231543794E+00  5.7274145708E+00  4.4908517768E-01  3.9031425358E-01  6.0883960459E-01
  1.2468227425E+04  6.2881309920E+00  5.7188185249E+00  4.6028573280E-01  3.9896992408E-01  6.1176507784E-01
  1.2565217391E+04  6.3532746512E+00  5.7103018409E+00  4.7169188356E-01  4.0773901113E-01  6.1468032818E-01
  1.2662207358E+04  6.4187119230E+00  5.7019781831E+00  4.8329773435E-01  4.1661630061E-01  6.1758521756E-01
  1.2759197324E+04  6.4843455514E+00  5.6937562684E+00  4.9509714491E-01  4.2559454473E-01  6.2047960686E-01
  1.2856187291E+04  6.5502418239E+00  5.6856887035E+00  5.0709183112E-01  4.3467380630E-01  6.2336336285E-01
  1.2953177258E+04  6.6163758943E+00  5.6777516955E+00  5.1928351080E-01  4.4385332766E-01  6.2623635800E-01
  1.3050167224E+04  6.6827302867E+00  5.6699263179E+00  5.3167390376E-01  4.5313235863E-01  6.2909847070E-01
  1.3147157191E+04  6.7493757028E+00  5.6622649321E+00  5.4426473174E-01  4.6251098775E-01  6.3194959247E-01
  1.3244147157E+04  6.8161885753E+00  5.6546700975E+00  5.5705771842E-01  4.7198739491E-01  6.3478958117E-01
  1.3341137124E+04  6.8833541806E+00  5.6472738482E+00  5.7005458938E-01  4.8156275286E-01  6.3761828463E-01
  1.3438127090E+04  6.9506902419E+00  5.6399423968E+00  5.8325707214E-01  4.9123459723E-01  6.4043555686E-01
  1.3535117057E+04  7.0183196140E+00  5.6327572934E+00  5.9666689608E-01  5.0100345859E-01  6.4324125790E-01
  1.3632107023E+04  7.0861903786E+00  5.6256810258E+00  6.1028579250E-01  5.1086811218E-01  6.4603525371E-01
  1.3729096990E+04  7.1542793056E+00  5.6186950346E+00  6.2414669935E-01  5.2084928744E-01  6.4881741606E-01
  1.3826086957E+04  7.2226965061E+00  5.6118661500E+00  6.3827521518E-01  5.3096351730E-01  6.5158762241E-01
  1.3923076923E+04  7.2912828562E+00  5.6050932158E+00  6.5262125460E-01  5.4117194317E-01  6.5434575577E-01
  1.4020066890E+04  7.3602150827E+00  5.5984787709E+00  6.6718661234E-01  5.5147568359E-01  6.5709170464E-01
  1.4117056856E+04  7.4293608951E+00  5.5919429332E+00  6.8197308523E-01  5.6187246026E-01  6.5982536139E-01
  1.4214046823E+04  7.4987514407E+00  5.5855006748E+00  6.9698247227E-01  5.7236174240E-01  6.6254659787E-01
  1.4311036789E+04  7.5684689690E+00  5.5791950020E+00  7.1221657450E-01  5.8294362600E-01  6.6525527708E-01
  1.4408026756E+04  7.6383572073E+00  5.5729389673E+00  7.2767719512E-01  5.9361538208E-01  6.6795126923E-01
  1.4505016722E+04  7.7086113977E+00  5.5668322673E+00  7.4336613934E-01  6.0437840682E-01  6.7063445055E-01
  1.4602006689E+04  7.7790851310E+00  5.5607972544E+00  7.5928521450E-01  6.1523003247E-01  6.7330470320E-01
  1.4698996656E+04  7.8497912342E+00  5.5548382485E+00  7.7543622996E-01  6.2616942520E-01  6.7596191512E-01
  1.4795986622E+04  7.9208631814E+00  5.5490180733E+00  7.9182099712E-01  6.3719729892E-01  6.7860597997E-01
  1.4892976589E+04  7.9921079392E+00  5.5432419644E+00  8.0844132943E-01  6.4831022789E-01  6.8123679699E-01
  1.4989966555E+04  8.0636931976E+00  5.5375858657E+00  8.2529904235E-01  6.5950933330E-01  6.8385427091E-01
  1.5086956522E+04  8.1355505810E+00  5.5320164510E+00  8.4244042129E-01  6.7082093291E-01  6.8645831118E-01
  1.5183946488E+04  8.2075816730E+00  5.5264882738E+00  8.5982959639E-01  6.8221831311E-01  6.8904881763E-01
  1.5280936455E+04  8.2800581410E+00  5.5211175507E+00  8.7746337519E-01  6.9370085695E-01  6.9162568372E-01
  1.5377926421E+04  8.3527160892E+00  5.5157885773E+00  8.9534360937E-01  7.0526392095E-01  6.9418880894E-01
  1.5474916388E+04  8.4256292697E+00  5.5105311782E+00  9.1347215271E-01  7.1690737905E-01  6.9673809858E-01
  1.5571906355E+04  8.4989264965E+00  5.5053964344E+00  9.3185086111E-01  7.2863196903E-01  6.9927346360E-01
  1.5668896321E+04  8.5724003022E+00  5.5002983135E+00  9.5048159256E-01  7.4043360266E-01  7.0179482056E-01
  1.5765886288E+04  8.6462100893E+00  5.4952984714E+00  9.6936620710E-01  7.5231342425E-01  7.0430209149E-01
  1.5862876254E+04  8.7203376337E+00  5.4903879307E+00  9.8850656687E-01  7.6427005721E-01  7.0679520375E-01
  1.5959866221E+04  8.7946430367E+00  5.4855116712E+00  1.0079045361E+00  7.7630021468E-01  7.0927408998E-01
  1.6056856187E+04  8.8693565492E+00  5.4807543091E+00  1.0275619809E+00  7.8840620709E-01  7.1173868358E-01
  1.6153846154E+04  8.9443304585E+00  5.4760593790E+00  1.0474807697E+00  8.0058461992E-01  7.1418890922E-01
  1.6250836120E+04  9.0194836335E+00  5.4713965395E+00  1.0676627727E+00  8.1283292886E-01  7.1662469479E-01
  1.6347826087E+04  9.0951065566E+00  5.4668672853E+00  1.0881098622E+00  8.2515454056E-01  7.1904597373E-01
  1.6444816054E+04  9.1709433006E+00  5.4623798926E+00  1.1088239126E+00  8.3754417289E-01  7.2145268485E-01
  1.6541806020E+04  9.2469639661E+00  5.4579235887E+00  1.1298068001E+00  8.5000003075E-01  7.2384477226E-01
  1.6638795987E+04  9.3234973395E+00  5.4536076717E+00  1.1510604031E+00  8.6252633716E-01  7.2622218523E-01
  1.6735785953E+04  9.4002137966E+00  5.4493202231E+00  1.1725866019E+00  8.7511637593E-01  7.2858487807E-01
  1.6832775920E+04  9.4771367390E+00  5.4450685817E+00  1.1943872786E+00  8.8776920248E-01  7.3093281002E-01
  1.6929765886E+04  9.5545653287E+00  5.4409472918E+00  1.2164643175E+00  9.0048873550E-01  7.3326594106E-01
  1.7026755853E+04  9.6321787723E+00  5.4368526379E+00  1.2388196047E+00  9.1326815935E-01  7.3558422506E-01
  1.7123745819E+04  9.7100047034E+00  5.4327929179E+00  1.2614550282E+00  9.2610659835E-01  7.3788761934E-01
  1.7220735786E+04  9.7883460417E+00  5.4288594047E+00  1.2843724782E+00  9.3900822596E-01  7.4017608633E-01
  1.7317725753E+04  9.8668741274E+00  5.4249508076E+00  1.3075738464E+00  9.5196584912E-01  7.4244959343E-01
  1.7414715719E+04  9.9456019685E+00  5.4210707978E+00  1.3310610268E+00  9.6497832033E-01  7.4470811289E-01
  1.7511705686E+04  1.0024873743E+01  5.4173186019E+00  1.3548588211E+00  9.7806270960E-01  7.4695162170E-01
  1.7608695652E+04  1.0104334278E+01  5.4135897061E+00  1.3791163096E+00  9.9128683619E-01  7.4918010144E-01
  1.7705685619E+04  1.0183982982E+01  5.4098838386E+00  1.4036710721E+00  1.0045628473E+00  7.5139354590E-01
  1.7802675585E+04  1.0264179063E+01  5.4063007227E+00  1.4285250895E+00  1.0178963758E+00  7.5359197537E-01
  1.7899665552E+04  1.0344587966E+01  5.4027455388E+00  1.4536803449E+00  1.0312796105E+00  7.5577537810E-01
  1.7996655518E+04  1.0425187157E+01  5.3992118857E+00  1.4791388238E+00  1.0447106710E+00  7.5794374238E-01
  1.8093645485E+04  1.0506286276E+01  5.3957827790E+00  1.5049025136E+00  1.0581944486E+00  7.6009706095E-01
  1.8190635452E+04  1.0587658382E+01  5.3923956527E+00  1.5309734041E+00  1.0717250551E+00  7.6223533081E-01
  1.8287625418E+04  1.0669222982E+01  5.3890286475E+00  1.5573534873E+00  1.0852994188E+00  7.6435855316E-01
  1.8384615385E+04  1.0751215927E+01  5.3857428571E+00  1.5840447573E+00  1.0989211014E+00  7.6646673325E-01
  1.8481605351E+04  1.0833566234E+01  5.3825184399E+00  1.6110492104E+00  1.1125873307E+00  7.6855987417E-01
  1.8578595318E+04  1.0916111324E+01  5.3793128153E+00  1.6383688449E+00  1.1262932525E+00  7.7063795549E-01
  1.8675585284E+04  1.0998987230E+01  5.3761600313E+00  1.6660056615E+00  1.1400404147E+00  7.7270100135E-01
  1.8772575251E+04  1.1082330906E+01  5.3730932591E+00  1.6939635567E+00  1.1538314238E+00  7.7474904643E-01
  1.8869565217E+04  1.1165871734E+01  5.3700440268E+00  1.7222436766E+00  1.1676585373E+00  7.7678212828E-01
  1.8966555184E+04  1.1249618029E+01  5.3670142955E+00  1.7508470796E+00  1.1815200583E+00  7.7880028722E-01
  1.9063545151E+04  1.1333970399E+01  5.3641003698E+00  1.7797757761E+00  1.1954237998E+00  7.8080356621E-01
  1.9160535117E+04  1.1418522375E+01  5.3612028019E+00  1.8090317783E+00  1.2093591823E+00  7.8279201082E-01
  1.9257525084E+04  1.1503273415E+01  5.3583214177E+00  1.8386171007E+00  1.2233247619E+00  7.8476565945E-01
  1.9354515050E+04  1.1588501257E+01  5.3555208723E+00  1.8685337601E+00  1.2373257306E+00  7.8672451935E-01
  1.9451505017E+04  1.1674079941E+01  5.3527704839E+00  1.8987837749E+00  1.2513578653E+00  7.8866860788E-01
  1.9548494983E+04  1.1759860234E+01  5.3500351774E+00  1.9293691660E+00  1.2654162347E+00  7.9059794713E-01
  1.9645484950E+04  1.1845938483E+01  5.3473366519E+00  1.9602919561E+00  1.2795017951E+00  7.9251256285E-01
  1.9742474916E+04  1.1932559580E+01  5.3447291852E+00  1.9915541701E+00  1.2936193117E+00  7.9441248433E-01
  1.9839464883E+04  1.2019384914E+01  5.3421357592E+00  2.0231578349E+00  1.3077591575E+00  7.9629774427E-01
  1.9936454849E+04  1.2106413963E+01  5.3395562302E+00  2.0551049794E+00  1.3219199267E+00  7.9816837867E-01
  2.0033444816E+04  1.2193974274E+01  5.3370617105E+00  2.0874133999E+00  1.3361150829E+00  8.0002442319E-01
  2.0130434783E+04  1.2281859827E+01  5.3346061393E+00  2.1201001496E+00  1.3503440894E+00  8.0186591059E-01
  2.0227424749E+04  1.2369951807E+01  5.3321634925E+00  2.1531377266E+00  1.3645903322E+00  8.0369287640E-01
  2.0324414716E+04  1.2458333629E+01  5.3297514570E+00  2.1865281838E+00  1.3788546500E+00  8.0550535944E-01
  2.0421404682E+04  1.2547290530E+01  5.3274297085E+00  2.2202735760E+00  1.3931433788E+00  8.0730340172E-01
  2.0518394649E+04  1.2636456604E+01  5.3251199651E+00  2.2543759601E+00  1.4074455896E+00  8.0908704831E-01
  2.0615384615E+04  1.2725831353E+01  5.3228221084E+00  2.2888373951E+00  1.4217599273E+00  8.1085634717E-01
  2.0712374582E+04  1.2815677272E+01  5.3205903350E+00  2.3236599420E+00  1.4360923053E+00  8.1261133267E-01
  2.0809364548E+04  1.2905927098E+01  5.3184096379E+00  2.3588456638E+00  1.4504397423E+00  8.1435205877E-01
  2.0906354515E+04  1.2996388376E+01  5.3162399688E+00  2.3943966256E+00  1.4647956674E+00  8.1607860085E-01
  2.1003344482E+04  1.3087060617E+01  5.3140812210E+00  2.4303148946E+00  1.4791587651E+00  8.1779103587E-01
  2.1100334448E+04  1.3178360453E+01  5.3120171292E+00  2.4666025398E+00  1.4935397154E+00  8.1948944227E-01
  2.1197324415E+04  1.3269917838E+01  5.3099720192E+00  2.5032616324E+00  1.5079268431E+00  8.2117389989E-01
  2.1294314381E+04  1.3361688993E+01  5.3079370273E+00  2.5402942455E+00  1.5223176335E+00  8.2284448983E-01
  2.1391304348E+04  1.3453752616E+01  5.3059276655E+00  2.5777024541E+00  1.5367131570E+00  8.2450128069E-01
  2.1488294314E+04  1.3546415580E+01  5.3040036545E+00  2.6154883355E+00  1.5511213909E+00  8.2614432037E-01
  2.1585284281E+04  1.3639295146E+01  5.3020890011E+00  2.6536539685E+00  1.5655298822E+00  8.2777365931E-01
  2.1682274247E+04  1.3732390843E+01  5.3001836183E+00  2.6922014344E+00  1.5799373951E+00  8.2938935070E-01
  2.1779264214E+04  1.3825876213E+01  5.2983208313E+00  2.7311328161E+00  1.5943480450E+00  8.3099145042E-01
  2.1876254181E+04  1.3919873577E+01  5.2965232548E+00  2.7704501984E+00  1.6087645568E+00  8.3258001689E-01
  2.1973244147E+04  1.4014089932E+01  5.2947342362E+00  2.8101556685E+00  1.6231768328E+00  8.3415511096E-01
  2.2070234114E+04  1.4108524819E+01  5.2929536973E+00  2.8502513150E+00  1.6375836874E+00  8.3571679580E-01
  2.2167224080E+04  1.4203417538E+01  5.2912264204E+00  2.8907392287E+00  1.6519915639E+00  8.3726513681E-01
  2.2264214047E+04  1.4298763852E+01  5.2895506879E+00  2.9316215024E+00  1.6663993651E+00  8.3880020147E-01
  2.2361204013E+04  1.4394331587E+01  5.2878827668E+00  2.9729016060E+00  1.6807990833E+00  8.4032205930E-01
  2.2458193980E+04  1.4490120293E+01  5.2862225870E+00  3.0148467022E+00  1.6952733864E+00  8.4183078171E-01
  2.2555183946E+04  1.4586404475E+01  5.2846202306E+00  3.0571987689E+00  1.7097460879E+00  8.4332644192E-01
  2.2652173913E+04  1.4683114265E+01  5.2830620191E+00  3.0999599756E+00  1.7242139712E+00  8.4480911346E-01
  2.2749163880E+04  1.4780047944E+01  5.2815109216E+00  3.1431324939E+00  1.7386693657E+00  8.4627886204E-01
  2.2846153846E+04  1.4877205073E+01  5.2799668757E+00  3.1867184975E+00  1.7531111717E+00  8.4773575151E-01
  2.2943143813E+04  1.4974863329E+01  5.2784792913E+00  3.2307201624E+00  1.7675477258E+00  8.4917984787E-01
  2.3040133779E+04  1.5072951092E+01  5.2770345256E+00  3.2751396664E+00  1.7819757325E+00  8.5061121921E-01
  2.3137123746E+04  1.5171265252E+01  5.2755962221E+00  3.3199791897E+00  1.7963873192E+00  8.5202993557E-01
  2.3234113712E+04  1.5269805379E+01  5.2741643248E+00  3.3652409145E+00  1.8107814439E+00  8.5343606885E-01
  2.3331103679E+04  1.5368818790E+01  5.2727817744E+00  3.4109270251E+00  1.8251657250E+00  8.5482969271E-01
  2.3428093645E+04  1.5468298992E+01  5.2714466090E+00  3.4570397079E+00  1.8395391133E+00  8.5621088248E-01
  2.3525083612E+04  1.5568008136E+01  5.2701172957E+00  3.5035811513E+00  1.8538923822E+00  8.5757971504E-01
  2.3622073579E+04  1.5667945802E+01  5.2687937849E+00  3.5505535461E+00  1.8682245486E+00  8.5893626875E-01
  2.3719063545E+04  1.5768293908E+01  5.2675069120E+00  3.5979590847E+00  1.8825411878E+00  8.6028062335E-01
  2.3816053512E+04  1.5869180975E+01  5.2662777147E+00  3.6457999619E+00  1.8968461291E+00  8.6161285986E-01
  2.3913043478E+04  1.5970299568E+01  5.2650537983E+00  3.6940783745E+00  1.9111274866E+00  8.6293305665E-01
  2.4010033445E+04  1.6071649274E+01  5.2638351186E+00  3.7427965212E+00  1.9253843368E+00  8.6424128543E-01
  2.4107023411E+04  1.6173310048E+01  5.2626349225E+00  3.7919566030E+00  1.9396187319E+00  8.6553761861E-01
  2.4204013378E+04  1.6275618364E+01  5.2615082591E+00  3.8415608228E+00  1.9538423193E+00  8.6682213021E-01
  2.4301003344E+04  1.6378160826E+01  5.2603863413E+00  3.8916113854E+00  1.9680390949E+00  8.6809489579E-01
  2.4397993311E+04  1.6480937030E+01  5.2592691302E+00  3.9421104980E+00  1.9822081943E+00  8.6935599231E-01
  2.4494983278E+04  1.6583946577E+01  5.2581565874E+00  3.9930603693E+00  1.9963487686E+00  8.7060549810E-01
  2.4591973244E+04  1.6687630763E+01  5.2571195624E+00  4.0444632105E+00  2.0104767623E+00  8.7184349273E-01
  2.4688963211E+04  1.6791611465E+01  5.2560964268E+00  4.0963212346E+00  2.0245772070E+00  8.7307005693E-01
  2.4785953177E+04  1.6895828576E+01  5.2550775005E+00  4.1486366565E+00  2.0386470423E+00  8.7428527253E-01
  2.4882943144E+04  1.7000281703E+01  5.2540627500E+00  4.2014116932E+00  2.0526854785E+00  8.7548922234E-01
  2.4979933110E+04  1.7105235617E+01  5.2530937720E+00  4.2546485639E+00  2.0667020550E+00  8.7668199059E-01
  2.5076923077E+04  1.7210668108E+01  5.2521663427E+00  4.3084520911E+00  2.0807192491E+00  8.7786367628E-01
  2.5173913043E+04  1.7316339700E+01  5.2512426563E+00  4.3627511646E+00  2.0947093271E+00  8.7903436562E-01
  2.5270903010E+04  1.7422250013E+01  5.2503226833E+00  4.4175215590E+00  2.1086653039E+00  8.8019413712E-01
  2.5367892977E+04  1.7528446038E+01  5.2494137294E+00  4.4727655295E+00  2.1225883507E+00  8.8134307033E-01
  2.5464882943E+04  1.7635338618E+01  5.2485789034E+00  4.5284853335E+00  2.1364943078E+00  8.8248124572E-01
  2.5561872910E+04  1.7742472979E+01  5.2477473830E+00  4.5846832305E+00  2.1503644049E+00  8.8360874466E-01
  2.5658862876E+04  1.7849848749E+01  5.2469191427E+00  4.6413614819E+00  2.1641979628E+00  8.8472564927E-01
  2.5755852843E+04  1.7957465556E+01  5.2460941572E+00  4.6985223514E+00  2.1779943165E+00  8.8583204245E-01
  2.5852842809E+04  1.8065617612E+01  5.2453172714E+00  4.7561681045E+00  2.1917649862E+00  8.8692800771E-01
  2.5949832776E+04  1.8174220566E+01  5.2445749240E+00  4.8143010087E+00  2.2055060144E+00  8.8801362918E-01
  2.6046822742E+04  1.8283067583E+01  5.2438354505E+00  4.8729233338E+00  2.2192082874E+00  8.8908899149E-01
  2.6143812709E+04  1.8392158301E+01  5.2430988292E+00  4.9320373514E+00  2.2328711966E+00  8.9015417648E-01
  2.6240802676E+04  1.8501493411E+01  5.2423651972E+00  4.9916453351E+00  2.2464941923E+00  8.9120925613E-01
  2.6337792642E+04  1.8611570346E+01  5.2417091782E+00  5.0517495606E+00  2.2600979136E+00  8.9225430531E-01
  2.6434782609E+04  1.8721893968E+01  5.2410556522E+00  5.1123523057E+00  2.2736608794E+00  8.9328940008E-01
  2.6531772575E+04  1.8832463921E+01  5.2404046006E+00  5.1734558499E+00  2.2871825359E+00  8.9431461730E-01
  2.6628762542E+04  1.8943279851E+01  5.2397560052E+00  5.2350624749E+00  2.3006623431E+00  8.9533003459E-01
  2.6725752508E+04  1.9054509066E+01  5.2391347663E+00  5.2971744643E+00  2.3141071086E+00  8.9633573029E-01
  2.6822742475E+04  1.9166314223E+01  5.2385645057E+00  5.3597941039E+00  2.3275235623E+00  8.9733178335E-01
  2.6919732441E+04  1.9278368307E+01  5.2379963652E+00  5.4229236811E+00  2.3408969682E+00  8.9831827327E-01
  2.7016722408E+04  1.9390670973E+01  5.2374303293E+00  5.4865654855E+00  2.3542268386E+00  8.9929528006E-01
  2.7113712375E+04  1.9503221875E+01  5.2368663826E+00  5.5507218087E+00  2.3675126988E+00  9.0026288416E-01
  2.7210702341E+04  1.9616313640E+01  5.2363474382E+00  5.6153949441E+00  2.3807672766E+00  9.0122116565E-01
  2.7307692308E+04  1.9729856328E+01  5.2358596767E+00  5.6805871871E+00  2.3939862141E+00  9.0217019983E-01
  2.7404682274E+04  1.9843650166E+01  5.2353736898E+00  5.7463036302E+00  2.4071606175E+00  9.0311006042E-01
  2.7501672241E+04  1.9957694816E+01  5.2348894648E+00  5.8125557507E+00  2.4202916356E+00  9.0404082181E-01
  2.7598662207E+04  2.0071989945E+01  5.2344069890E+00  5.8793341799E+00  2.4333767826E+00  9.0496255896E-01
  2.7695652174E+04  2.0186911927E+01  5.2339807096E+00  5.9466412239E+00  2.4464330890E+00  9.0587534739E-01
  2.7792642140E+04  2.0302200954E+01  5.2335723787E+00  6.0144791908E+00  2.4594482888E+00  9.0677926306E-01
  2.7889632107E+04  2.0417743332E+01  5.2331655020E+00  6.0828503907E+00  2.4724167759E+00  9.0767438237E-01
  2.7986622074E+04  2.0533538734E+01  5.2327600692E+00  6.1517571355E+00  2.4853381846E+00  9.0856078204E-01
  2.8083612040E+04  2.0649586835E+01  5.2323560704E+00  6.2212017391E+00  2.4982121614E+00  9.0943853913E-01
  2.8180602007E+04  2.0766306043E+01  5.2320132638E+00  6.2911865173E+00  2.5110582542E+00  9.1030773133E-01
  2.8277591973E+04  2.0883349711E+01  5.2316814711E+00  6.3617137879E+00  2.5238598069E+00  9.1116844462E-01
  2.8374581940E+04  2.1000648911E+01  5.2313508354E+00  6.4327858703E+00  2.5366132492E+00  9.1202075190E-01
  2.8471571906E+04  2.1118203324E+01  5.2310213487E+00  6.5044050861E+00  2.5493182719E+00  9.1286472049E-01
  2.8568561873E+04  2.1236012635E+01  5.2306930032E+00  6.5765737588E+00  2.5619745768E+00  9.1370041835E-01
  2.8665551839E+04  2.1354495537E+01  5.2304248849E+00  6.6492942136E+00  2.5746022856E+00  9.1452791406E-01
  2.8762541806E+04  2.1473301643E+01  5.2301669012E+00  6.7225687776E+00  2.5871841857E+00  9.1534727671E-01
  2.8859531773E+04  2.1592365440E+01  5.2299097987E+00  6.7963997800E+00  2.5997168420E+00  9.1615857587E-01
  2.8956521739E+04  2.1711686616E+01  5.2296535713E+00  6.8707895517E+00  2.6121999978E+00  9.1696188154E-01
  2.9053511706E+04  2.1831264865E+01  5.2293982133E+00  6.9457404254E+00  2.6246334066E+00  9.1775726407E-01
  2.9150501672E+04  2.1951477511E+01  5.2291963796E+00  7.0212547358E+00  2.6370356742E+00  9.1854479411E-01
  2.9247491639E+04  2.2072053348E+01  5.2290096271E+00  7.0973348194E+00  2.6493931585E+00  9.1932454258E-01
  2.9344481605E+04  2.2192889008E+01  5.2288234995E+00  7.1739830147E+00  2.6617005114E+00  9.2009658061E-01
  2.9441471572E+04  2.2313984191E+01  5.2286379926E+00  7.2512016617E+00  2.6739575247E+00  9.2086097949E-01
  2.9538461538E+04  2.2435338596E+01  5.2284531024E+00  7.3289931027E+00  2.6861640004E+00  9.2161781063E-01
  2.9635451505E+04  2.2557246743E+01  5.2283095059E+00  7.4073596814E+00  2.6983348043E+00  9.2236714551E-01
  2.9732441472E+04  2.2679599096E+01  5.2281915467E+00  7.4863037436E+00  2.7104642612E+00  9.2310905565E-01
  2.9829431438E+04  2.2802213381E+01  5.2280739743E+00  7.5658276370E+00  2.7225429263E+00  9.2384361256E-01
  2.9926421405E+04  2.2925089304E+01  5.2279567862E+00  7.6459337108E+00  2.7345706368E+00  9.2457088772E-01
  3.0023411371E+04  2.3048226572E+01  5.2278399799E+00  7.7267397670E+00  2.7465618267E+00  9.2529095251E-01
  3.0120401338E+04  2.3171795680E+01  5.2277468799E+00  7.8085008471E+00  2.7585562694E+00  9.2600387818E-01
  3.0217391304E+04  2.3295930464E+01  5.2276953320E+00  7.8908597499E+00  2.7705148869E+00  9.2670973223E-01
  3.0314381271E+04  2.3420329256E+01  5.2276439498E+00  7.9738189032E+00  2.7824218423E+00  9.2740857584E-01
  3.0411371237E+04  2.3544991772E+01  5.2275927322E+00  8.0573807369E+00  2.7942770103E+00  9.2810047003E-01
  3.0508361204E+04  2.3669917726E+01  5.2275416783E+00  8.1415476830E+00  2.8060802739E+00  9.2878547618E-01
  3.0605351171E+04  2.3795113218E+01  5.2274916496E+00  8.2263221753E+00  2.8178318649E+00  9.2946365597E-01
  3.0702341137E+04  2.3921034912E+01  5.2275040756E+00  8.3117066498E+00  2.8295560807E+00  9.3013507131E-01
  3.0799331104E+04  2.4047222654E+01  5.2275164625E+00  8.3977035442E+00  2.8412283565E+00  9.3079978437E-01
  3.0896321070E+04  2.4173676167E+01  5.2275288104E+00  8.4843152986E+00  2.8528486060E+00  9.3145785744E-01
  3.0993311037E+04  2.4300395172E+01  5.2275411197E+00  8.5715443547E+00  2.8644167506E+00  9.3210935298E-01
  3.1090301003E+04  2.4427379395E+01  5.2275533905E+00  8.6593931563E+00  2.8759327193E+00  9.3275433351E-01
  3.1187290970E+04  2.4554894974E+01  5.2276011046E+00  8.7478641492E+00  2.8874109573E+00  9.3339286161E-01
