#[MATERIAL DEFINITION FOR MC-GPU: interaction mean free path and sampling data from PENELOPE 2006]
#[MATERIAL NAME]
# AT_AG_SI4_9                                                   
#[NOMINAL DENSITY (g/cm^3)]
#   1.01117000
#[NUMBER OF DATA VALUES]
#   1495
#[MEAN FREE PATHS (cm) (ie, average distance between interactions)]
#[Energy (eV)     | Rayleigh        | Compton         | Photoelectric   | TOTAL (+pair prod) (cm) | Rayleigh: max cumul prob F^2]
  5.0000000000E+03  2.1118334092E+00  7.5638089224E+00  2.9907549999E-02  2.9375387770E-02  3.4318372882E-01
  5.0969899666E+03  2.1588091387E+00  7.5006447597E+00  3.1703683184E-02  3.1115215975E-02  3.4809922774E-01
  5.1939799331E+03  2.2062559601E+00  7.4402719717E+00  3.3570672712E-02  3.2921198369E-02  3.5292148940E-01
  5.2909698997E+03  2.2541631964E+00  7.3825199013E+00  3.5509907105E-02  3.4794428196E-02  3.5765518035E-01
  5.3879598662E+03  2.3025200265E+00  7.3272304194E+00  3.7522775443E-02  3.6735986180E-02  3.6230465613E-01
  5.4849498328E+03  2.3513155202E+00  7.2742568202E+00  3.9611741415E-02  3.8747967890E-02  3.6687420373E-01
  5.5819397993E+03  2.4005386723E+00  7.2234628328E+00  4.1790210357E-02  4.0842899199E-02  3.7136808913E-01
  5.6789297659E+03  2.4501784382E+00  7.1747217350E+00  4.4047757655E-02  4.3010488093E-02  3.7579031017E-01
  5.7759197324E+03  2.5002237689E+00  7.1279155562E+00  4.6385824795E-02  4.5251801191E-02  3.8014461461E-01
  5.8729096990E+03  2.5506636460E+00  7.0829343601E+00  4.8805854280E-02  4.7567890546E-02  3.8443454278E-01
  5.9698996656E+03  2.6014871242E+00  7.0396755911E+00  5.1309289601E-02  4.9959793234E-02  3.8866362908E-01
  6.0668896321E+03  2.6526836979E+00  6.9980431210E+00  5.3907556113E-02  5.2437975218E-02  3.9283523040E-01
  6.1638795987E+03  2.7042439242E+00  6.9579461296E+00  5.6597628681E-02  5.4999164249E-02  3.9695249479E-01
  6.2608695652E+03  2.7561593914E+00  6.9192988141E+00  5.9376689235E-02  5.7640299024E-02  4.0101839964E-01
  6.3578595318E+03  2.8084218953E+00  6.8820209374E+00  6.2246229881E-02  6.0362386733E-02  4.0503576892E-01
  6.4548494983E+03  2.8610346429E+00  6.8460758982E+00  6.5207744073E-02  6.3166426232E-02  4.0900728855E-01
  6.5518394649E+03  2.9139913194E+00  6.8113999870E+00  6.8262726589E-02  6.6053393426E-02  4.1293552024E-01
  6.6488294314E+03  2.9672720143E+00  6.7778869163E+00  7.1412673513E-02  6.9024234597E-02  4.1682291398E-01
  6.7458193980E+03  3.0208688007E+00  6.7454745049E+00  7.4659082208E-02  7.2079886151E-02  4.2067181885E-01
  6.8428093645E+03  3.0747739936E+00  6.7141045217E+00  7.8003451301E-02  7.5221265709E-02  4.2448440930E-01
  6.9397993311E+03  3.1289801805E+00  6.6837224164E+00  8.1447280661E-02  7.8449271716E-02  4.2826265688E-01
  7.0367892977E+03  3.1834812812E+00  6.6542807868E+00  8.5004340880E-02  8.1776139633E-02  4.3200845811E-01
  7.1337792642E+03  3.2383008271E+00  6.6258395555E+00  8.8685557795E-02  8.5211383084E-02  4.3572364184E-01
  7.2307692308E+03  3.2934025857E+00  6.5982425868E+00  9.2473144487E-02  8.8737890362E-02  4.3940995114E-01
  7.3277591973E+03  3.3487816180E+00  6.5714473266E+00  9.6368681725E-02  9.2356529874E-02  4.4306894016E-01
  7.4247491639E+03  3.4044331840E+00  6.5454138618E+00  1.0037375211E-01  9.6068148383E-02  4.4670207202E-01
  7.5217391304E+03  3.4603689538E+00  6.5201618120E+00  1.0448994007E-01  9.9873597492E-02  4.5031076958E-01
  7.6187290970E+03  3.5165883709E+00  6.4956704896E+00  1.0871883181E-01  1.0377369180E-01  4.5389638902E-01
  7.7157190635E+03  3.5730661351E+00  6.4718332778E+00  1.1306201529E-01  1.0776917839E-01  4.5746011342E-01
  7.8127090301E+03  3.6297980899E+00  6.4486189009E+00  1.1752108022E-01  1.1186081356E-01  4.6100305966E-01
  7.9096989967E+03  3.6868030124E+00  6.4260785627E+00  1.2209761805E-01  1.1604937871E-01  4.6452632238E-01
  8.0066889632E+03  3.7440689512E+00  6.4041581310E+00  1.2679502103E-01  1.2033719451E-01  4.6803092274E-01
  8.1036789298E+03  3.8015765349E+00  6.3827744959E+00  1.3163825843E-01  1.2474588985E-01  4.7151773742E-01
  8.2006688963E+03  3.8593293878E+00  6.3619268035E+00  1.3660544168E-01  1.2925490912E-01  4.7498761229E-01
  8.2976588629E+03  3.9173529580E+00  6.3416858941E+00  1.4169821600E-01  1.3386499036E-01  4.7844137726E-01
  8.3946488294E+03  3.9756098255E+00  6.3219097284E+00  1.4691822863E-01  1.3857668490E-01  4.8187975979E-01
  8.4916387960E+03  4.0340987274E+00  6.3025827143E+00  1.5226724782E-01  1.4339071075E-01  4.8530340189E-01
  8.5886287625E+03  4.0928593036E+00  6.2838201310E+00  1.5774856709E-01  1.4830923108E-01  4.8871293873E-01
  8.6856187291E+03  4.1518454726E+00  6.2654607393E+00  1.6336220200E-01  1.5333122098E-01  4.9210896767E-01
  8.7826086957E+03  4.2110600241E+00  6.2475040271E+00  1.6910981140E-01  1.5845722800E-01  4.9549197991E-01
  8.8795986622E+03  4.2705376711E+00  6.2300457973E+00  1.7499305609E-01  1.6368788868E-01  4.9886244675E-01
  8.9765886288E+03  4.3302334939E+00  6.2129380603E+00  1.8101359875E-01  1.6902353950E-01  5.0222084991E-01
  9.0735785953E+03  4.3901629728E+00  6.1962189517E+00  1.8719773532E-01  1.7448609562E-01  5.0556759569E-01
  9.1705685619E+03  4.4503394520E+00  6.1799149426E+00  1.9353195761E-01  1.8006267662E-01  5.0890296848E-01
  9.2675585284E+03  4.5107280143E+00  6.1639168280E+00  2.0001036217E-01  1.8574692624E-01  5.1222725175E-01
  9.3645484950E+03  4.5713669896E+00  6.1483204543E+00  2.0663466646E-01  1.9153939799E-01  5.1554073246E-01
  9.4615384615E+03  4.6322301120E+00  6.1330430350E+00  2.1340659013E-01  1.9744035006E-01  5.1884370093E-01
  9.5585284281E+03  4.6933123478E+00  6.1180650411E+00  2.2032785494E-01  2.0345009581E-01  5.2213644693E-01
  9.6555183946E+03  4.7546473271E+00  6.1034596048E+00  2.2740018480E-01  2.0956909898E-01  5.2541916401E-01
  9.7525083612E+03  4.8161855930E+00  6.0890978266E+00  2.3462530569E-01  2.1579740652E-01  5.2869195807E-01
  9.8494983278E+03  4.8779759396E+00  6.0750872215E+00  2.4200494571E-01  2.2213550505E-01  5.3195493886E-01
  9.9464882943E+03  4.9399802640E+00  6.0613302925E+00  2.4954083500E-01  2.2858342454E-01  5.3520822152E-01
  1.0043478261E+04  5.0022123784E+00  6.0478523379E+00  2.5725259084E-01  2.3515636911E-01  5.3845192633E-01
  1.0140468227E+04  5.0646815419E+00  6.0346612562E+00  2.6514756294E-01  2.4185902803E-01  5.4168617498E-01
  1.0237458194E+04  5.1273571641E+00  6.0216888783E+00  2.7320608118E-01  2.4867337406E-01  5.4491102001E-01
  1.0334448161E+04  5.1902941710E+00  6.0090297818E+00  2.8142993201E-01  2.5559981905E-01  5.4812645677E-01
  1.0431438127E+04  5.2534233049E+00  5.9965482678E+00  2.8982090423E-01  2.6263805051E-01  5.5133248576E-01
  1.0528428094E+04  5.3168273360E+00  5.9843813370E+00  2.9838078891E-01  2.6978859255E-01  5.5452911346E-01
  1.0625418060E+04  5.3804268486E+00  5.9723854135E+00  3.0711137939E-01  2.7705099550E-01  5.5771635208E-01
  1.0722408027E+04  5.4442904035E+00  5.9606649626E+00  3.1601447128E-01  2.8442565624E-01  5.6089420698E-01
  1.0819397993E+04  5.5083639234E+00  5.9491268773E+00  3.2509186242E-01  2.9191219710E-01  5.6406262047E-01
  1.0916387960E+04  5.5726926622E+00  5.9378328814E+00  3.3434535284E-01  2.9951082667E-01  5.6722152008E-01
  1.1013377926E+04  5.6372434109E+00  5.9267265913E+00  3.4377674481E-01  3.0722122325E-01  5.7037083986E-01
  1.1110367893E+04  5.7020432654E+00  5.9158402503E+00  3.5338784276E-01  3.1504342901E-01  5.7351051994E-01
  1.1207357860E+04  5.7670740169E+00  5.9051412932E+00  3.6319623412E-01  3.2298963056E-01  5.7664050456E-01
  1.1304347826E+04  5.8323511768E+00  5.8946449369E+00  3.7323041045E-01  3.3108054878E-01  5.7976070589E-01
  1.1401337793E+04  5.8978642174E+00  5.8843303136E+00  3.8345238406E-01  3.3928420815E-01  5.8287100849E-01
  1.1498327759E+04  5.9636251168E+00  5.8742073149E+00  3.9386402349E-01  3.4760044522E-01  5.8597130258E-01
  1.1595317726E+04  6.0296222061E+00  5.8642553832E+00  4.0446719972E-01  3.5602888447E-01  5.8906148460E-01
  1.1692307692E+04  6.0958735105E+00  5.8544900801E+00  4.1526378617E-01  3.6456934859E-01  5.9214145878E-01
  1.1789297659E+04  6.1623558433E+00  5.8448804573E+00  4.2625565869E-01  3.7322130977E-01  5.9521113865E-01
  1.1886287625E+04  6.2291044375E+00  5.8354580812E+00  4.3744469552E-01  3.8198466601E-01  5.9827037758E-01
  1.1983277592E+04  6.2960726063E+00  5.8261715560E+00  4.4883277726E-01  3.9085863791E-01  6.0131902041E-01
  1.2080267559E+04  6.3633255824E+00  5.8170781667E+00  4.6042178691E-01  3.9984331120E-01  6.0435691873E-01
  1.2177257525E+04  6.4307795401E+00  5.8080966179E+00  4.7221360978E-01  4.0893753113E-01  6.0738393080E-01
  1.2274247492E+04  6.4985441865E+00  5.7993190441E+00  4.8421013355E-01  4.1814170979E-01  6.1039992126E-01
  1.2371237458E+04  6.5664832108E+00  5.7906253669E+00  4.9641324817E-01  4.2745416587E-01  6.1340476107E-01
  1.2468227425E+04  6.6347670391E+00  5.7821511702E+00  5.0882484593E-01  4.3687580585E-01  6.1639832724E-01
  1.2565217391E+04  6.7032235641E+00  5.7737548970E+00  5.2146773879E-01  4.4641987353E-01  6.1938050274E-01
  1.2662207358E+04  6.7720017194E+00  5.7655472245E+00  5.3433417891E-01  4.5607977053E-01  6.2235116811E-01
  1.2759197324E+04  6.8409872509E+00  5.7574392632E+00  5.4741610874E-01  4.6584646935E-01  6.2531016136E-01
  1.2856187291E+04  6.9102576703E+00  5.7494824349E+00  5.6071545441E-01  4.7571999449E-01  6.2825731814E-01
  1.2953177258E+04  6.9797839985E+00  5.7416535138E+00  5.7423414440E-01  4.8569938849E-01  6.3119248184E-01
  1.3050167224E+04  7.0495456037E+00  5.7339341199E+00  5.8797410953E-01  4.9578370593E-01  6.3411550249E-01
  1.3147157191E+04  7.1196249346E+00  5.7263755046E+00  6.0193728299E-01  5.0597300796E-01  6.3702623668E-01
  1.3244147157E+04  7.1898781453E+00  5.7188823011E+00  6.1612560026E-01  5.1626507356E-01  6.3992454743E-01
  1.3341137124E+04  7.2605202613E+00  5.7115840575E+00  6.3054099916E-01  5.2666126558E-01  6.4281030399E-01
  1.3438127090E+04  7.3313399092E+00  5.7043495144E+00  6.4518541978E-01  5.3715859827E-01  6.4568338178E-01
  1.3535117057E+04  7.4024791576E+00  5.6972588873E+00  6.6006080451E-01  5.4775767061E-01  6.4854365727E-01
  1.3632107023E+04  7.4738780778E+00  5.6902752897E+00  6.7516909800E-01  5.5845698519E-01  6.5139098394E-01
  1.3729096990E+04  7.5455097096E+00  5.6833805449E+00  6.9054438517E-01  5.6927715700E-01  6.5422521480E-01
  1.3826086957E+04  7.6175009604E+00  5.6766405511E+00  7.0621319978E-01  5.8023482383E-01  6.5704620986E-01
  1.3923076923E+04  7.6896686173E+00  5.6699555830E+00  7.2212412490E-01  5.9129041562E-01  6.5985383574E-01
  1.4020066890E+04  7.7622156907E+00  5.6634269845E+00  7.3827917230E-01  6.0244524189E-01  6.6264796550E-01
  1.4117056856E+04  7.8349903393E+00  5.6569758209E+00  7.5468035627E-01  6.1369656276E-01  6.6542847854E-01
  1.4214046823E+04  7.9080281593E+00  5.6506169907E+00  7.7132969360E-01  6.2504372634E-01  6.6819526046E-01
  1.4311036789E+04  7.9814233959E+00  5.6443931078E+00  7.8822920359E-01  6.3648682904E-01  6.7094820266E-01
  1.4408026756E+04  8.0549971769E+00  5.6382180498E+00  8.0538090799E-01  6.4802260595E-01  6.7368718960E-01
  1.4505016722E+04  8.1289725479E+00  5.6321908173E+00  8.2278683103E-01  6.5965270723E-01  6.7641209749E-01
  1.4602006689E+04  8.2031823615E+00  5.6262343250E+00  8.4044899938E-01  6.7137394759E-01  6.7912280873E-01
  1.4698996656E+04  8.2776411649E+00  5.6203529376E+00  8.5836944215E-01  6.8318532909E-01  6.8181921215E-01
  1.4795986622E+04  8.3525010879E+00  5.6146091909E+00  8.7655019084E-01  6.9508769561E-01  6.8450120289E-01
  1.4892976589E+04  8.4275422639E+00  5.6089087850E+00  8.9499327939E-01  7.0707697314E-01  6.8716868230E-01
  1.4989966555E+04  8.5029553538E+00  5.6033274774E+00  9.1370074411E-01  7.1915449515E-01  6.8982155779E-01
  1.5086956522E+04  8.5786626958E+00  5.5978320424E+00  9.3272397211E-01  7.3134837372E-01  6.9245974247E-01
  1.5183946488E+04  8.6545524853E+00  5.5923771610E+00  9.5202318094E-01  7.4362957585E-01  6.9508314592E-01
  1.5280936455E+04  8.7309324832E+00  5.5870789277E+00  9.7159485005E-01  7.5599772685E-01  6.9769167280E-01
  1.5377926421E+04  8.8075038384E+00  5.5818217845E+00  9.9144105666E-01  7.6844733272E-01  7.0028523354E-01
  1.5474916388E+04  8.8843497789E+00  5.5766355646E+00  1.0115638805E+00  7.8097825551E-01  7.0286374473E-01
  1.5571906355E+04  8.9616156763E+00  5.5715713549E+00  1.0319654037E+00  7.9359137862E-01  7.0542712898E-01
  1.5668896321E+04  9.0390675249E+00  5.5665431461E+00  1.0526477109E+00  8.0628188635E-01  7.0797531477E-01
  1.5765886288E+04  9.1168845289E+00  5.5616126571E+00  1.0736128893E+00  8.1905114440E-01  7.1050823635E-01
  1.5862876254E+04  9.1950462517E+00  5.5567709162E+00  1.0948630284E+00  8.3189754667E-01  7.1302583208E-01
  1.5959866221E+04  9.2733955031E+00  5.5519628657E+00  1.1164002201E+00  8.4481724154E-01  7.1552803497E-01
  1.6056856187E+04  9.3521901995E+00  5.5472732882E+00  1.1382265590E+00  8.5781296753E-01  7.1801477940E-01
  1.6153846154E+04  9.4312649510E+00  5.5426456271E+00  1.1603441417E+00  8.7088073224E-01  7.2048600561E-01
  1.6250836120E+04  9.5105289359E+00  5.5380494941E+00  1.1827550675E+00  8.8401759694E-01  7.2294165959E-01
  1.6347826087E+04  9.5903064427E+00  5.5335866804E+00  1.2054614381E+00  8.9722758389E-01  7.2538169291E-01
  1.6444816054E+04  9.6703118355E+00  5.5291652160E+00  1.2284653572E+00  9.1050452647E-01  7.2780606258E-01
  1.6541806020E+04  9.7505117673E+00  5.5247743075E+00  1.2517689312E+00  9.2384635448E-01  7.3021473190E-01
  1.6638795987E+04  9.8312721280E+00  5.5205236769E+00  1.2753742689E+00  9.3725804022E-01  7.3260766713E-01
  1.6735785953E+04  9.9122261713E+00  5.5163009939E+00  1.2992834811E+00  9.5073176068E-01  7.3498482441E-01
  1.6832775920E+04  9.9933998931E+00  5.5121136407E+00  1.3234986812E+00  9.6426645058E-01  7.3734616372E-01
  1.6929765886E+04  1.0075125228E+01  5.5080566197E+00  1.3480219848E+00  9.7786671994E-01  7.3969165057E-01
  1.7026755853E+04  1.0157046315E+01  5.5040257354E+00  1.3728555099E+00  9.9152465458E-01  7.4202125585E-01
  1.7123745819E+04  1.0239193754E+01  5.5000293411E+00  1.3980013766E+00  1.0052392776E+00  7.4433495568E-01
  1.7220735786E+04  1.0321902704E+01  5.4961592378E+00  1.4234617074E+00  1.0190154897E+00  7.4663273129E-01
  1.7317725753E+04  1.0404809598E+01  5.4923135706E+00  1.4492386271E+00  1.0328449618E+00  7.4891456887E-01
  1.7414715719E+04  1.0487928816E+01  5.4884960431E+00  1.4753342627E+00  1.0467264090E+00  7.5118045945E-01
  1.7511705686E+04  1.0571640112E+01  5.4848065414E+00  1.5017757752E+00  1.0606783264E+00  7.5343039873E-01
  1.7608695652E+04  1.0655551666E+01  5.4811398776E+00  1.5287261453E+00  1.0747707334E+00  7.5566438698E-01
  1.7705685619E+04  1.0739662850E+01  5.4774957858E+00  1.5560079470E+00  1.0889115779E+00  7.5788242892E-01
  1.7802675585E+04  1.0824368661E+01  5.4739746864E+00  1.5836234037E+00  1.1031074343E+00  7.6008453353E-01
  1.7899665552E+04  1.0909301269E+01  5.4704811156E+00  1.6115747415E+00  1.1173493124E+00  7.6227072347E-01
  1.7996655518E+04  1.0994435924E+01  5.4670086354E+00  1.6398641892E+00  1.1316350968E+00  7.6444102022E-01
  1.8093645485E+04  1.1080111846E+01  5.4636408464E+00  1.6684939780E+00  1.1459704881E+00  7.6659542619E-01
  1.8190635452E+04  1.1166080459E+01  5.4603147577E+00  1.6974663418E+00  1.1603487481E+00  7.6873394811E-01
  1.8287625418E+04  1.1252253612E+01  5.4570083648E+00  1.7267835169E+00  1.1747663973E+00  7.7085659715E-01
  1.8384615385E+04  1.1338888751E+01  5.4537831964E+00  1.7564477425E+00  1.1892275923E+00  7.7296338880E-01
  1.8481605351E+04  1.1425908431E+01  5.4506192814E+00  1.7864612598E+00  1.2037292037E+00  7.7505433824E-01
  1.8578595318E+04  1.1513135216E+01  5.4474737480E+00  1.8168263131E+00  1.2182657162E+00  7.7712944012E-01
  1.8675585284E+04  1.1600717082E+01  5.4443808906E+00  1.8475451488E+00  1.2328389690E+00  7.7918873749E-01
  1.8772575251E+04  1.1688803008E+01  5.4413741230E+00  1.8786223038E+00  1.2474520119E+00  7.8123228610E-01
  1.8869565217E+04  1.1777098682E+01  5.4383844978E+00  1.9100589925E+00  1.2620960379E+00  7.8326014423E-01
  1.8966555184E+04  1.1865613130E+01  5.4354139960E+00  1.9418563234E+00  1.2767691740E+00  7.8527237258E-01
  1.9063545151E+04  1.1954780600E+01  5.4325596127E+00  1.9740165544E+00  1.2914804104E+00  7.8726903437E-01
  1.9160535117E+04  1.2044160533E+01  5.4297212024E+00  2.0065419461E+00  1.3062177306E+00  7.8925019100E-01
  1.9257525084E+04  1.2133752356E+01  5.4268985957E+00  2.0394347615E+00  1.3209795613E+00  7.9121587445E-01
  1.9354515050E+04  1.2223856128E+01  5.4241569149E+00  2.0726972658E+00  1.3357718851E+00  7.9316611233E-01
  1.9451505017E+04  1.2314335797E+01  5.4214652674E+00  2.1063317270E+00  1.3505899616E+00  7.9510093622E-01
  1.9548494983E+04  1.2405030157E+01  5.4187883335E+00  2.1403404153E+00  1.3654282539E+00  7.9702038148E-01
  1.9645484950E+04  1.2496042964E+01  5.4161479732E+00  2.1747256033E+00  1.3802879228E+00  7.9892448718E-01
  1.9742474916E+04  1.2587637945E+01  5.4135988615E+00  2.2094895663E+00  1.3951744468E+00  8.0081329589E-01
  1.9839464883E+04  1.2679450492E+01  5.4110634332E+00  2.2446345818E+00  1.4100769775E+00  8.0268685360E-01
  1.9936454849E+04  1.2771480053E+01  5.4085415487E+00  2.2801629295E+00  1.4249940022E+00  8.0454520958E-01
  2.0033444816E+04  1.2864078299E+01  5.4061048421E+00  2.3160935708E+00  1.4399399699E+00  8.0638841623E-01
  2.0130434783E+04  1.2957024064E+01  5.4037069253E+00  2.3524446739E+00  1.4549135438E+00  8.0821652899E-01
  2.0227424749E+04  1.3050189795E+01  5.4013215900E+00  2.3891872736E+00  1.4698976340E+00  8.1002960433E-01
  2.0324414716E+04  1.3143664881E+01  5.3989666610E+00  2.4263236758E+00  1.4848932706E+00  8.1182766879E-01
  2.0421404682E+04  1.3237754976E+01  5.3967022693E+00  2.4638561885E+00  1.4999076817E+00  8.1361077444E-01
  2.0518394649E+04  1.3332068018E+01  5.3944495498E+00  2.5017871224E+00  1.5149286176E+00  8.1537898928E-01
  2.0615384615E+04  1.3426603480E+01  5.3922083874E+00  2.5401187904E+00  1.5299546399E+00  8.1713238368E-01
  2.0712374582E+04  1.3521642187E+01  5.3900334091E+00  2.5788535078E+00  1.5449924927E+00  8.1887103026E-01
  2.0809364548E+04  1.3617112200E+01  5.3879094966E+00  2.6179935925E+00  1.5600389005E+00  8.2059500381E-01
  2.0906354515E+04  1.3712807639E+01  5.3857962914E+00  2.6575413644E+00  1.5750865571E+00  8.2230438114E-01
  2.1003344482E+04  1.3808727986E+01  5.3836936904E+00  2.6974991462E+00  1.5901340762E+00  8.2399924101E-01
  2.1100334448E+04  1.3905318250E+01  5.3816861181E+00  2.7378692626E+00  1.6051935419E+00  8.2567966402E-01
  2.1197324415E+04  1.4002183207E+01  5.3796972871E+00  2.7786540409E+00  1.6202519269E+00  8.2734573250E-01
  2.1294314381E+04  1.4099276106E+01  5.3777182654E+00  2.8198558104E+00  1.6353065035E+00  8.2899753044E-01
  2.1391304348E+04  1.4196680868E+01  5.3757647005E+00  2.8614769032E+00  1.6503585664E+00  8.3063514455E-01
  2.1488294314E+04  1.4294724747E+01  5.3738968266E+00  2.9035196533E+00  1.6654171433E+00  8.3225864571E-01
  2.1585284281E+04  1.4392999616E+01  5.3720380093E+00  2.9459863972E+00  1.6804683725E+00  8.3386809751E-01
  2.1682274247E+04  1.4491504979E+01  5.3701881642E+00  2.9888794738E+00  1.6955109696E+00  8.3546356610E-01
  2.1779264214E+04  1.4590425598E+01  5.3683809148E+00  3.0322012241E+00  1.7105496336E+00  8.3704512009E-01
  2.1876254181E+04  1.4689891720E+01  5.3666390806E+00  3.0759539915E+00  1.7255875001E+00  8.3861283045E-01
  2.1973244147E+04  1.4789591408E+01  5.3649055133E+00  3.1201401216E+00  1.7406133786E+00  8.4016677032E-01
  2.2070234114E+04  1.4889524176E+01  5.3631801375E+00  3.1647619624E+00  1.7556260466E+00  8.4170701500E-01
  2.2167224080E+04  1.4989944389E+01  5.3615081488E+00  3.2098218640E+00  1.7706327907E+00  8.4323364175E-01
  2.2264214047E+04  1.5090847558E+01  5.3598878191E+00  3.2553221788E+00  1.7856324783E+00  8.4474672975E-01
  2.2361204013E+04  1.5191986904E+01  5.3582750193E+00  3.3012667365E+00  1.8006162283E+00  8.4624635986E-01
  2.2458193980E+04  1.5293361953E+01  5.3566696819E+00  3.3479421564E+00  1.8156664765E+00  8.4773261007E-01
  2.2555183946E+04  1.5395264019E+01  5.3551223665E+00  3.3950718770E+00  1.8307081530E+00  8.4920555304E-01
  2.2652173913E+04  1.5497618969E+01  5.3536192703E+00  3.4426583348E+00  1.8457377736E+00  8.5066526290E-01
  2.2749163880E+04  1.5600212743E+01  5.3521230154E+00  3.4907039690E+00  1.8607469094E+00  8.5211181579E-01
  2.2846153846E+04  1.5703044875E+01  5.3506335416E+00  3.5392112212E+00  1.8757344463E+00  8.5354528977E-01
  2.2943143813E+04  1.5806409571E+01  5.3492007460E+00  3.5881825356E+00  1.8907097442E+00  8.5496576470E-01
  2.3040133779E+04  1.5910230963E+01  5.3478108569E+00  3.6376203585E+00  1.9056692411E+00  8.5637332212E-01
  2.3137123746E+04  1.6014293858E+01  5.3464271652E+00  3.6875271392E+00  1.9206043052E+00  8.5776804517E-01
  2.3234113712E+04  1.6118597802E+01  5.3450496176E+00  3.7379053291E+00  1.9355138902E+00  8.5915001848E-01
  2.3331103679E+04  1.6223404409E+01  5.3437215914E+00  3.7887573820E+00  1.9504065403E+00  8.6051932808E-01
  2.3428093645E+04  1.6328706823E+01  5.3424411096E+00  3.8400857545E+00  1.9652811904E+00  8.6187605895E-01
  2.3525083612E+04  1.6434253453E+01  5.3411662228E+00  3.8918929053E+00  1.9801277297E+00  8.6322029015E-01
  2.3622073579E+04  1.6540043855E+01  5.3398968838E+00  3.9441812956E+00  1.9949451804E+00  8.6455210098E-01
  2.3719063545E+04  1.6646270151E+01  5.3386642520E+00  3.9969533890E+00  2.0097398110E+00  8.6587157236E-01
  2.3816053512E+04  1.6753068085E+01  5.3374895884E+00  4.0502116518E+00  2.0245159496E+00  8.6717878670E-01
  2.3913043478E+04  1.6860112980E+01  5.3363199558E+00  4.1039585522E+00  2.0392605700E+00  8.6847382783E-01
  2.4010033445E+04  1.6967404402E+01  5.3351553123E+00  4.1581965612E+00  2.0539727623E+00  8.6975678092E-01
  2.4107023411E+04  1.7075026652E+01  5.3340090492E+00  4.2129281520E+00  2.0686548979E+00  8.7102773231E-01
  2.4204013378E+04  1.7183334514E+01  5.3329368103E+00  4.2681558003E+00  2.0833199151E+00  8.7228676953E-01
  2.4301003344E+04  1.7291892115E+01  5.3318690738E+00  4.3238819839E+00  2.0979502748E+00  8.7353398110E-01
  2.4397993311E+04  1.7400699029E+01  5.3308058028E+00  4.3801091834E+00  2.1125451348E+00  8.7476945332E-01
  2.4494983278E+04  1.7509754836E+01  5.3297469610E+00  4.4368398813E+00  2.1271036697E+00  8.7599326769E-01
  2.4591973244E+04  1.7619524080E+01  5.3287641832E+00  4.4940765628E+00  2.1416435175E+00  8.7720550631E-01
  2.4688963211E+04  1.7729608733E+01  5.3277951642E+00  4.5518217152E+00  2.1561483141E+00  8.7840625256E-01
  2.4785953177E+04  1.7839945518E+01  5.3268301196E+00  4.6100778283E+00  2.1706148029E+00  8.7959559094E-01
  2.4882943144E+04  1.7950534023E+01  5.3258690178E+00  4.6688473942E+00  2.1850422246E+00  8.8077360702E-01
  2.4979933110E+04  1.8061652540E+01  5.3249539246E+00  4.7281329072E+00  2.1994411518E+00  8.8194038736E-01
  2.5076923077E+04  1.8173277739E+01  5.3240805727E+00  4.7880485843E+00  2.2138339688E+00  8.8309601939E-01
  2.5173913043E+04  1.8285157913E+01  5.3232107345E+00  4.8485170594E+00  2.2281920779E+00  8.8424059137E-01
  2.5270903010E+04  1.8397292657E+01  5.3223443826E+00  4.9095120304E+00  2.2425085398E+00  8.8537419720E-01
  2.5367892977E+04  1.8509731321E+01  5.3214889016E+00  4.9710360315E+00  2.2567847432E+00  8.8649693007E-01
  2.5464882943E+04  1.8622905376E+01  5.3207080695E+00  5.0330915991E+00  2.2710381203E+00  8.8760886758E-01
  2.5561872910E+04  1.8736337228E+01  5.3199303197E+00  5.0956812723E+00  2.2852482275E+00  8.8871008803E-01
  2.5658862876E+04  1.8850026485E+01  5.3191556284E+00  5.1588075922E+00  2.2994144280E+00  8.8980067093E-01
  2.5755852843E+04  1.8963972752E+01  5.3183839721E+00  5.2224731026E+00  2.3135361009E+00  8.9088069686E-01
  2.5852842809E+04  1.9078484830E+01  5.3176606255E+00  5.2866803495E+00  2.3276259223E+00  8.9195024737E-01
  2.5949832776E+04  1.9193474194E+01  5.3169719014E+00  5.3514318813E+00  2.3416796634E+00  8.9300940493E-01
  2.6046822742E+04  1.9308723758E+01  5.3162858353E+00  5.4167302486E+00  2.3556874785E+00  8.9405825287E-01
  2.6143812709E+04  1.9424233137E+01  5.3156024072E+00  5.4825780046E+00  2.3696488078E+00  8.9509687521E-01
  2.6240802676E+04  1.9540003054E+01  5.3149217573E+00  5.5489777048E+00  2.3835631549E+00  8.9612535670E-01
  2.6337792642E+04  1.9656555292E+01  5.3143191474E+00  5.6159319068E+00  2.3974530804E+00  8.9714378267E-01
  2.6434782609E+04  1.9773370486E+01  5.3137188204E+00  5.6834431707E+00  2.4112952921E+00  8.9815223898E-01
  2.6531772575E+04  1.9890448262E+01  5.3131207596E+00  5.7515140589E+00  2.4250892883E+00  8.9915081196E-01
  2.6628762542E+04  2.0007788248E+01  5.3125249479E+00  5.8201471362E+00  2.4388345821E+00  9.0013958834E-01
  2.6725752508E+04  2.0125565825E+01  5.3119564743E+00  5.8893449695E+00  2.4525386628E+00  9.0111865520E-01
  2.6822742475E+04  2.0243951511E+01  5.3114391404E+00  5.9591101282E+00  2.4662089216E+00  9.0208809988E-01
  2.6919732441E+04  2.0362602507E+01  5.3109237239E+00  6.0294451838E+00  2.4798294544E+00  9.0304800997E-01
  2.7016722408E+04  2.0481518448E+01  5.3104102109E+00  6.1003527103E+00  2.4933998295E+00  9.0399847136E-01
  2.7113712375E+04  2.0600698971E+01  5.3098985875E+00  6.1718352838E+00  2.5069196293E+00  9.0493956099E-01
  2.7210702341E+04  2.0720450625E+01  5.3094320459E+00  6.2438954827E+00  2.5204027270E+00  9.0587135389E-01
  2.7307692308E+04  2.0840679201E+01  5.3089966805E+00  6.3165358878E+00  2.5338444852E+00  9.0679392585E-01
  2.7404682274E+04  2.0961175418E+01  5.3085628941E+00  6.3897624764E+00  2.5472353759E+00  9.0770735336E-01
  2.7501672241E+04  2.1081938921E+01  5.3081306755E+00  6.4635889807E+00  2.5605767626E+00  9.0861171357E-01
  2.7598662207E+04  2.1202969356E+01  5.3077000136E+00  6.5380038167E+00  2.5738660113E+00  9.0950708418E-01
  2.7695652174E+04  2.1324660741E+01  5.3073256535E+00  6.6130095777E+00  2.5871215978E+00  9.1039354340E-01
  2.7792642140E+04  2.1446741099E+01  5.3069691417E+00  6.6886088593E+00  2.6003303561E+00  9.1127116986E-01
  2.7889632107E+04  2.1569091403E+01  5.3066138957E+00  6.7648042595E+00  2.6134863230E+00  9.1214004257E-01
  2.7986622074E+04  2.1691711310E+01  5.3062599067E+00  6.8415983785E+00  2.6265891944E+00  9.1300024088E-01
  2.8083612040E+04  2.1814600476E+01  5.3059071658E+00  6.9189938185E+00  2.6396386781E+00  9.1385184436E-01
  2.8180602007E+04  2.1938196611E+01  5.3056156967E+00  6.9969931841E+00  2.6526559052E+00  9.1469493283E-01
  2.8277591973E+04  2.2062137086E+01  5.3053351021E+00  7.0755990823E+00  2.6656230156E+00  9.1552958622E-01
  2.8374581940E+04  2.2186349790E+01  5.3050554831E+00  7.1548141220E+00  2.6785362515E+00  9.1635588460E-01
  2.8471571906E+04  2.2310834388E+01  5.3047768328E+00  7.2346409144E+00  2.6913953661E+00  9.1717390807E-01
  2.8568561873E+04  2.2435590545E+01  5.3044991448E+00  7.3150820729E+00  2.7042001240E+00  9.1798373677E-01
  2.8665551839E+04  2.2561055948E+01  5.3042817060E+00  7.3961402134E+00  2.7169722105E+00  9.1878544851E-01
  2.8762541806E+04  2.2686864325E+01  5.3040742572E+00  7.4778179534E+00  2.7296932132E+00  9.1957911404E-01
  2.8859531773E+04  2.2812947185E+01  5.3038675148E+00  7.5601179132E+00  2.7423595259E+00  9.2036480318E-01
  2.8956521739E+04  2.2939304204E+01  5.3036614740E+00  7.6430427148E+00  2.7549709549E+00  9.2114258624E-01
  2.9053511706E+04  2.3065935055E+01  5.3034561302E+00  7.7265949827E+00  2.7675273170E+00  9.2191253390E-01
  2.9150501672E+04  2.3193233876E+01  5.3033042629E+00  7.8107773433E+00  2.7800486119E+00  9.2267471721E-01
  2.9247491639E+04  2.3320917383E+01  5.3031673413E+00  7.8955924255E+00  2.7925202966E+00  9.2342920750E-01
  2.9344481605E+04  2.3448877602E+01  5.3030308765E+00  7.9810428600E+00  2.8049367218E+00  9.2417607631E-01
  2.9441471572E+04  2.3577114214E+01  5.3028948654E+00  8.0671312798E+00  2.8172977427E+00  9.2491539540E-01
  2.9538461538E+04  2.3705626903E+01  5.3027593052E+00  8.1538603202E+00  2.8296032241E+00  9.2564723664E-01
  2.9635451505E+04  2.3834723064E+01  5.3026649268E+00  8.2412326184E+00  2.8418691147E+00  9.2637167203E-01
  2.9732441472E+04  2.3964288378E+01  5.3025960556E+00  8.3292508139E+00  2.8540894152E+00  9.2708877357E-01
  2.9829431438E+04  2.4094132601E+01  5.3025274096E+00  8.4179175482E+00  2.8662541116E+00  9.2779861331E-01
  2.9926421405E+04  2.4224255423E+01  5.3024589873E+00  8.5072354651E+00  2.8783631039E+00  9.2850126324E-01
  3.0023411371E+04  2.4354656535E+01  5.3023907873E+00  8.5973307635E+00  2.8904302661E+00  9.2919679529E-01
  3.0120401338E+04  2.4485513766E+01  5.3023461487E+00  8.6884765233E+00  2.9024946638E+00  9.2988528128E-01
  3.0217391304E+04  2.4616966715E+01  5.3023429298E+00  8.7802906101E+00  2.9145196740E+00  9.3056679078E-01
  3.0314381271E+04  2.4748700736E+01  5.3023397212E+00  8.8727757525E+00  2.9264884931E+00  9.3124138778E-01
  3.0411371237E+04  2.4880715526E+01  5.3023365229E+00  8.9659346816E+00  2.9384010583E+00  9.3190913565E-01
  3.0508361204E+04  2.5013010787E+01  5.3023333348E+00  9.0597701308E+00  2.9502573153E+00  9.3257009799E-01
  3.0605351171E+04  2.5145592875E+01  5.3023310202E+00  9.1542848357E+00  2.9620575794E+00  9.3322433864E-01
  3.0702341137E+04  2.5278937986E+01  5.3023910522E+00  9.2494815344E+00  2.9738277490E+00  9.3387192156E-01
  3.0799331104E+04  2.5412566291E+01  5.3024508956E+00  9.3453629669E+00  2.9855417592E+00  9.3451291085E-01
  3.0896321070E+04  2.5546477496E+01  5.3025105515E+00  9.4419318760E+00  2.9971995848E+00  9.3514737067E-01
  3.0993311037E+04  2.5680671310E+01  5.3025700211E+00  9.5391910065E+00  3.0088012081E+00  9.3577536523E-01
  3.1090301003E+04  2.5815147441E+01  5.3026293056E+00  9.6371431054E+00  3.0203466190E+00  9.3639695871E-01
  3.1187290970E+04  2.5950183355E+01  5.3027239202E+00  9.7357909222E+00  3.0318512154E+00  9.3701221529E-01
