#[MATERIAL DEFINITION FOR MC-GPU: interaction mean free path and sampling data from PENELOPE 2006]
#[MATERIAL NAME]
# AT_AG_SI3_8                                                   
#[NOMINAL DENSITY (g/cm^3)]
#   0.98427700
#[NUMBER OF DATA VALUES]
#   1495
#[MEAN FREE PATHS (cm) (ie, average distance between interactions)]
#[Energy (eV)     | Rayleigh        | Compton         | Photoelectric   | TOTAL (+pair prod) (cm) | Rayleigh: max cumul prob F^2]
  5.0000000000E+03  2.2949254836E+00  7.5805535142E+00  3.3582993037E-02  3.2954752271E-02  3.4127879555E-01
  5.0969899666E+03  2.3458673669E+00  7.5226593733E+00  3.5604041143E-02  3.4908994257E-02  3.4618425691E-01
  5.1939799331E+03  2.3972865354E+00  7.4672458222E+00  3.7705046087E-02  3.6937571642E-02  3.5100395057E-01
  5.2909698997E+03  2.4491715693E+00  7.4141625451E+00  3.9887582480E-02  3.9041702216E-02  3.5574237542E-01
  5.3879598662E+03  2.5015109103E+00  7.3632701229E+00  4.2153225673E-02  4.1222588516E-02  3.6040374773E-01
  5.4849498328E+03  2.5542928992E+00  7.3144390903E+00  4.4504633060E-02  4.3482449581E-02  3.6499218324E-01
  5.5819397993E+03  2.6075058136E+00  7.2675490902E+00  4.6955481705E-02  4.5833979515E-02  3.6951170772E-01
  5.6789297659E+03  2.6611379055E+00  7.2224881137E+00  4.9495457818E-02  4.8266951753E-02  3.7396610853E-01
  5.7759197324E+03  2.7151774386E+00  7.1791518166E+00  5.2126190972E-02  5.0782543182E-02  3.7835895417E-01
  5.8729096990E+03  2.7696127269E+00  7.1374429030E+00  5.4849311940E-02  5.3381912920E-02  3.8269362724E-01
  5.9698996656E+03  2.8244321790E+00  7.0972705641E+00  5.7666452675E-02  5.6066201807E-02  3.8697343061E-01
  6.0668896321E+03  2.8796247345E+00  7.0585497648E+00  6.0591288387E-02  5.8847891228E-02  3.9120147174E-01
  6.1638795987E+03  2.9351806056E+00  7.0212004506E+00  6.3620060533E-02  6.1722935481E-02  3.9538068584E-01
  6.2608695652E+03  2.9910912332E+00  6.9851472390E+00  6.6749259635E-02  6.4687544238E-02  3.9951386722E-01
  6.3578595318E+03  3.0473482922E+00  6.9503196024E+00  6.9980576318E-02  6.7742820844E-02  4.0360368544E-01
  6.4548494983E+03  3.1039544587E+00  6.9166847973E+00  7.3315702818E-02  7.0889856944E-02  4.0765263509E-01
  6.5518394649E+03  3.1609032027E+00  6.8841865463E+00  7.6756431002E-02  7.4129808587E-02  4.1166301982E-01
  6.6488294314E+03  3.2181749443E+00  6.8527317841E+00  8.0304403228E-02  7.7463656325E-02  4.1563704792E-01
  6.7458193980E+03  3.2757616743E+00  6.8222656787E+00  8.3961282481E-02  8.0892385406E-02  4.1957684616E-01
  6.8428093645E+03  3.3336556336E+00  6.7927368501E+00  8.7728767561E-02  8.4416990278E-02  4.2348441639E-01
  6.9397993311E+03  3.3918493446E+00  6.7640971403E+00  9.1608558751E-02  8.8038442048E-02  4.2736153721E-01
  7.0367892977E+03  3.4503366219E+00  6.7363046008E+00  9.5615481824E-02  9.1769778928E-02  4.3120990299E-01
  7.1337792642E+03  3.5091397279E+00  6.7094098082E+00  9.9761326028E-02  9.5621134985E-02  4.3503116013E-01
  7.2307692308E+03  3.5682241911E+00  6.6832773515E+00  1.0402716545E-01  9.9574296879E-02  4.3882687686E-01
  7.3277591973E+03  3.6275853402E+00  6.6578697520E+00  1.0841478829E-01  1.0363019085E-01  4.4259841130E-01
  7.4247491639E+03  3.6872186743E+00  6.6331518252E+00  1.1292598488E-01  1.0778971690E-01  4.4634703916E-01
  7.5217391304E+03  3.7471356171E+00  6.6091396668E+00  1.1756254762E-01  1.1205377646E-01  4.5007401063E-01
  7.6187290970E+03  3.8073359657E+00  6.5858146322E+00  1.2232627103E-01  1.1642322876E-01  4.5378051579E-01
  7.7157190635E+03  3.8677953003E+00  6.5630841440E+00  1.2721895163E-01  1.2089885840E-01  4.5746756038E-01
  7.8127090301E+03  3.9285096191E+00  6.5409205399E+00  1.3224238798E-01  1.2548145577E-01  4.6113609128E-01
  7.9096989967E+03  3.9894975885E+00  6.5193671251E+00  1.3739838062E-01  1.3017183424E-01  4.6478704367E-01
  8.0066889632E+03  4.0507478751E+00  6.4983765593E+00  1.4269090296E-01  1.3497266040E-01  4.6842128197E-01
  8.1036789298E+03  4.1122415613E+00  6.4778768516E+00  1.4814996411E-01  1.3990974023E-01  4.7203952255E-01
  8.2006688963E+03  4.1739824302E+00  6.4578667437E+00  1.5374903346E-01  1.4495830992E-01  4.7564245816E-01
  8.2976588629E+03  4.2359970599E+00  6.4384075641E+00  1.5948997622E-01  1.5011912660E-01  4.7923077256E-01
  8.3946488294E+03  4.2982480820E+00  6.4193763841E+00  1.6537465990E-01  1.5539274377E-01  4.8280504723E-01
  8.4916387960E+03  4.3607342681E+00  6.4007592145E+00  1.7140510119E-01  1.6077990530E-01  4.8636578062E-01
  8.5886287625E+03  4.4234976951E+00  6.3826565852E+00  1.7758519829E-01  1.6628310786E-01  4.8991347007E-01
  8.6856187291E+03  4.4864909585E+00  6.3649279653E+00  1.8391480597E-01  1.7190098130E-01  4.9344857874E-01
  8.7826086957E+03  4.5497170528E+00  6.3475724809E+00  1.9039580561E-01  1.7763406087E-01  4.9697146534E-01
  8.8795986622E+03  4.6132141051E+00  6.3306744645E+00  1.9703008089E-01  1.8348297928E-01  5.0048247288E-01
  8.9765886288E+03  4.6769344300E+00  6.3141038270E+00  2.0381951767E-01  1.8944803444E-01  5.0398195832E-01
  9.0735785953E+03  4.7408950929E+00  6.2978939298E+00  2.1079107799E-01  1.9555129877E-01  5.0747020593E-01
  9.1705685619E+03  4.8051120415E+00  6.2820684585E+00  2.1793121169E-01  2.0177974601E-01  5.1094738260E-01
  9.2675585284E+03  4.8695468548E+00  6.2665304303E+00  2.2523410483E-01  2.0812690559E-01  5.1441365739E-01
  9.3645484950E+03  4.9342433753E+00  6.2513649781E+00  2.3270170069E-01  2.1459330742E-01  5.1786920573E-01
  9.4615384615E+03  4.9991729199E+00  6.2364985566E+00  2.4033594505E-01  2.2117914561E-01  5.2131420904E-01
  9.5585284281E+03  5.0643298278E+00  6.2219134541E+00  2.4813878613E-01  2.2788467310E-01  5.2474885061E-01
  9.6555183946E+03  5.1297544348E+00  6.2076753630E+00  2.5611217460E-01  2.3471031826E-01  5.2817322105E-01
  9.7525083612E+03  5.1953892674E+00  6.1936685832E+00  2.6425806353E-01  2.4165602463E-01  5.3158732919E-01
  9.8494983278E+03  5.2612928095E+00  6.1799897987E+00  2.7257840841E-01  2.4872224691E-01  5.3499119030E-01
  9.9464882943E+03  5.3274206269E+00  6.1665513320E+00  2.8107516707E-01  2.5590890734E-01  5.3838482697E-01
  1.0043478261E+04  5.3937896059E+00  6.1533758571E+00  2.8977257120E-01  2.6323457375E-01  5.4176826880E-01
  1.0140468227E+04  5.4604119242E+00  6.1404708626E+00  2.9867957642E-01  2.7070486909E-01  5.4514154866E-01
  1.0237458194E+04  5.5272504201E+00  6.1277742447E+00  3.0777149132E-01  2.7829749746E-01  5.4850463513E-01
  1.0334448161E+04  5.5943728311E+00  6.1153725239E+00  3.1705034311E-01  2.8601283298E-01  5.5185744513E-01
  1.0431438127E+04  5.6616944376E+00  6.1031416654E+00  3.2651816170E-01  2.9385038281E-01  5.5519990261E-01
  1.0528428094E+04  5.7293173603E+00  6.0912074244E+00  3.3617697964E-01  3.0181065925E-01  5.5853193905E-01
  1.0625418060E+04  5.7971441503E+00  6.0794380227E+00  3.4602883214E-01  3.0989300475E-01  5.6185349319E-01
  1.0722408027E+04  5.8652596364E+00  6.0679297615E+00  3.5607575701E-01  3.1809778281E-01  5.6516449916E-01
  1.0819397993E+04  5.9335973929E+00  6.0565968539E+00  3.6631979469E-01  3.2642442351E-01  5.6846483407E-01
  1.0916387960E+04  6.0022136241E+00  6.0454964763E+00  3.7676298815E-01  3.3487306721E-01  5.7175436357E-01
  1.1013377926E+04  6.0710675775E+00  6.0345765394E+00  3.8740738295E-01  3.4344321402E-01  5.7503296124E-01
  1.1110367893E+04  6.1401930591E+00  6.0238670419E+00  3.9825502716E-01  3.5213480668E-01  5.7830050820E-01
  1.1207357860E+04  6.2095678365E+00  6.0133378839E+00  4.0932388654E-01  3.6095975918E-01  5.8155689120E-01
  1.1304347826E+04  6.2792113808E+00  6.0030032717E+00  4.2064293071E-01  3.6993847795E-01  5.8480196932E-01
  1.1401337793E+04  6.3491109565E+00  5.9928439338E+00  4.3217408212E-01  3.7903907192E-01  5.8803557833E-01
  1.1498327759E+04  6.4192816672E+00  5.9828691449E+00  4.4391945540E-01  3.8826123879E-01  5.9125756113E-01
  1.1595317726E+04  6.4897093139E+00  5.9730598117E+00  4.5588116795E-01  3.9760442128E-01  5.9446776830E-01
  1.1692307692E+04  6.5604165712E+00  5.9634306479E+00  4.6806133997E-01  4.0706830655E-01  5.9766605882E-01
  1.1789297659E+04  6.6313748120E+00  5.9539525658E+00  4.8046209444E-01  4.1665215480E-01  6.0085229494E-01
  1.1886287625E+04  6.7026282583E+00  5.9446556295E+00  4.9308555705E-01  4.2635575402E-01  6.0402629467E-01
  1.1983277592E+04  6.7741188203E+00  5.9354910321E+00  5.0593385623E-01  4.3617805795E-01  6.0718787362E-01
  1.2080267559E+04  6.8459283465E+00  5.9265136693E+00  5.1900912312E-01  4.4611909691E-01  6.1033685544E-01
  1.2177257525E+04  6.9179521134E+00  5.9176457091E+00  5.3231349151E-01  4.5617736244E-01  6.1347307167E-01
  1.2274247492E+04  6.9903278459E+00  5.9089759562E+00  5.4584909788E-01  4.6635330275E-01  6.1659636155E-01
  1.2371237458E+04  7.0628848134E+00  5.9003886426E+00  5.5961808136E-01  4.7664475565E-01  6.1970657180E-01
  1.2468227425E+04  7.1358371309E+00  5.8920151936E+00  5.7362258368E-01  4.8705280114E-01  6.2280355646E-01
  1.2565217391E+04  7.2089689140E+00  5.8837183752E+00  5.8789417048E-01  4.9759585069E-01  6.2588717674E-01
  1.2662207358E+04  7.2824668855E+00  5.8756059795E+00  6.0242142077E-01  5.0826467552E-01  6.2895730439E-01
  1.2759197324E+04  7.3561880899E+00  5.8675914285E+00  6.1719247907E-01  5.1904701517E-01  6.3201379694E-01
  1.2856187291E+04  7.4302289175E+00  5.8597250681E+00  6.3220953219E-01  5.2994285919E-01  6.3505647586E-01
  1.2953177258E+04  7.5045534382E+00  5.8519842005E+00  6.4747476968E-01  5.4095097053E-01  6.3808516865E-01
  1.3050167224E+04  7.5791356736E+00  5.8443509913E+00  6.6299038381E-01  5.5207013239E-01  6.4109971076E-01
  1.3147157191E+04  7.6540777942E+00  5.8368757098E+00  6.7875856956E-01  5.6330039000E-01  6.4409994546E-01
  1.3244147157E+04  7.7292019307E+00  5.8294648294E+00  6.9478152460E-01  5.7463894232E-01  6.4708572364E-01
  1.3341137124E+04  7.8047728991E+00  5.8222458285E+00  7.1106144928E-01  5.8608746626E-01  6.5005690369E-01
  1.3438127090E+04  7.8805306431E+00  5.8150895582E+00  7.2760054660E-01  5.9764221741E-01  6.5301335129E-01
  1.3535117057E+04  7.9566493028E+00  5.8080752176E+00  7.4440102220E-01  6.0930392639E-01  6.5595493495E-01
  1.3632107023E+04  8.0330555878E+00  5.8011664044E+00  7.6146508435E-01  6.2107071486E-01  6.5888150399E-01
  1.3729096990E+04  8.1097162902E+00  5.7943452776E+00  7.7882743039E-01  6.3296250514E-01  6.6179290859E-01
  1.3826086957E+04  8.1867862779E+00  5.7876771123E+00  7.9651513345E-01  6.4499572652E-01  6.6468900703E-01
  1.3923076923E+04  8.2640422549E+00  5.7810631545E+00  8.1447646703E-01  6.5713070178E-01  6.6756966528E-01
  1.4020066890E+04  8.3417308730E+00  5.7746040985E+00  8.3271370913E-01  6.6936905914E-01  6.7043475683E-01
  1.4117056856E+04  8.4196678410E+00  5.7682215388E+00  8.5122914064E-01  6.8170740280E-01  6.7328416257E-01
  1.4214046823E+04  8.4978961060E+00  5.7619304112E+00  8.7002504529E-01  6.9414493483E-01  6.7611777061E-01
  1.4311036789E+04  8.5765297846E+00  5.7557731993E+00  8.8910370968E-01  7.0668178705E-01  6.7893547588E-01
  1.4408026756E+04  8.6553525876E+00  5.7496640891E+00  9.0846742320E-01  7.1931393285E-01  6.8173716845E-01
  1.4505016722E+04  8.7346335045E+00  5.7437020552E+00  9.2811847809E-01  7.3204343589E-01  6.8452273170E-01
  1.4602006689E+04  8.8141711302E+00  5.7378100604E+00  9.4805916936E-01  7.4486637921E-01  6.8729205602E-01
  1.4698996656E+04  8.8939828326E+00  5.7319925672E+00  9.6829179481E-01  7.5778155919E-01  6.9004503918E-01
  1.4795986622E+04  8.9742515005E+00  5.7263122915E+00  9.8881865499E-01  7.7079004981E-01  6.9278158612E-01
  1.4892976589E+04  9.0547130407E+00  5.7206747036E+00  1.0096420532E+00  7.8388685646E-01  6.9550160885E-01
  1.4989966555E+04  9.1355959067E+00  5.7151559845E+00  1.0307642955E+00  7.9707366505E-01  6.9820502626E-01
  1.5086956522E+04  9.2168071674E+00  5.7097227481E+00  1.0522458407E+00  8.1038226044E-01  7.0089176376E-01
  1.5183946488E+04  9.2982130049E+00  5.7043294445E+00  1.0740397207E+00  8.2377937897E-01  7.0356174451E-01
  1.5280936455E+04  9.3801803990E+00  5.6990929551E+00  1.0961416936E+00  8.3726492549E-01  7.0621488765E-01
  1.5377926421E+04  9.4623531598E+00  5.6938969720E+00  1.1185541135E+00  8.5083219865E-01  7.0885111875E-01
  1.5474916388E+04  9.5448300190E+00  5.6887715518E+00  1.1412793373E+00  8.6448108197E-01  7.1147037026E-01
  1.5571906355E+04  9.6277834383E+00  5.6837681571E+00  1.1643197247E+00  8.7821270910E-01  7.1407258129E-01
  1.5668896321E+04  9.7109360094E+00  5.6788001893E+00  1.1876776383E+00  8.9202124603E-01  7.1665769753E-01
  1.5765886288E+04  9.7944992386E+00  5.6739298361E+00  1.2113554433E+00  9.0590841643E-01  7.1922567102E-01
  1.5862876254E+04  9.8784490870E+00  5.6691480761E+00  1.2353555081E+00  9.1987232076E-01  7.2177645855E-01
  1.5959866221E+04  9.9626001705E+00  5.6643994573E+00  1.2596802036E+00  9.3390833222E-01  7.2431001226E-01
  1.6056856187E+04  1.0047255399E+01  5.6597694323E+00  1.2843319034E+00  9.4801983978E-01  7.2682628606E-01
  1.6153846154E+04  1.0132220644E+01  5.6552010219E+00  1.3093129842E+00  9.6220206110E-01  7.2932524025E-01
  1.6250836120E+04  1.0217389333E+01  5.6506636134E+00  1.3346258249E+00  9.7645150352E-01  7.3180684135E-01
  1.6347826087E+04  1.0303140570E+01  5.6462598363E+00  1.3602728077E+00  9.9077310014E-01  7.3427106199E-01
  1.6444816054E+04  1.0389140559E+01  5.6418969892E+00  1.3862563172E+00  1.0051594650E+00  7.3671788069E-01
  1.6541806020E+04  1.0475350368E+01  5.6375642019E+00  1.4125787408E+00  1.0196081759E+00  7.3914728264E-01
  1.6638795987E+04  1.0562195872E+01  5.6333721375E+00  1.4392424684E+00  1.0341252960E+00  7.4155925648E-01
  1.6735785953E+04  1.0649250322E+01  5.6292075284E+00  1.4662498928E+00  1.0487014793E+00  7.4395378063E-01
  1.6832775920E+04  1.0736543901E+01  5.6250778319E+00  1.4936034094E+00  1.0633355276E+00  7.4633083772E-01
  1.6929765886E+04  1.0824461371E+01  5.6210788993E+00  1.5213054162E+00  1.0780330512E+00  7.4869041626E-01
  1.7026755853E+04  1.0912590355E+01  5.6171056298E+00  1.5493583138E+00  1.0927846362E+00  7.5103251049E-01
  1.7123745819E+04  1.1000966232E+01  5.6131664622E+00  1.5777645056E+00  1.1075892000E+00  7.5335712018E-01
  1.7220735786E+04  1.1089975965E+01  5.6093540495E+00  1.6065263974E+00  1.1224526849E+00  7.5566425051E-01
  1.7317725753E+04  1.1179199905E+01  5.6055656164E+00  1.6356463977E+00  1.1373652210E+00  7.5795391184E-01
  1.7414715719E+04  1.1268654633E+01  5.6018049103E+00  1.6651269176E+00  1.1523253684E+00  7.6022611961E-01
  1.7511705686E+04  1.1358776917E+01  5.5981727848E+00  1.6949982236E+00  1.1673535831E+00  7.6248089412E-01
  1.7608695652E+04  1.1449116218E+01  5.5945630562E+00  1.7254417151E+00  1.1825227485E+00  7.6471826039E-01
  1.7705685619E+04  1.1539671861E+01  5.5909754641E+00  1.7562600188E+00  1.1977353054E+00  7.6693824804E-01
  1.7802675585E+04  1.1630896087E+01  5.5875115245E+00  1.7874556538E+00  1.2129991511E+00  7.6914089104E-01
  1.7899665552E+04  1.1722367853E+01  5.5840747531E+00  1.8190311423E+00  1.2283037135E+00  7.7132623795E-01
  1.7996655518E+04  1.1814058867E+01  5.5806586506E+00  1.8509890091E+00  1.2436465907E+00  7.7349433626E-01
  1.8093645485E+04  1.1906355611E+01  5.5773478718E+00  1.8833317823E+00  1.2590346236E+00  7.7564521293E-01
  1.8190635452E+04  1.1998974960E+01  5.5740786501E+00  1.9160619929E+00  1.2744599450E+00  7.7777889933E-01
  1.8287625418E+04  1.2091816524E+01  5.5708287143E+00  1.9491821745E+00  1.2899185526E+00  7.7989543135E-01
  1.8384615385E+04  1.2185172220E+01  5.5676604737E+00  1.9826948639E+00  1.3054154501E+00  7.8199484928E-01
  1.8481605351E+04  1.2278954291E+01  5.5645536858E+00  2.0166026008E+00  1.3209470528E+00  7.8407719285E-01
  1.8578595318E+04  1.2372961606E+01  5.5614648795E+00  2.0509079277E+00  1.3365069779E+00  7.8614247986E-01
  1.8675585284E+04  1.2467361173E+01  5.5584289001E+00  2.0856133900E+00  1.3520974966E+00  7.8819077929E-01
  1.8772575251E+04  1.2562321151E+01  5.5554797016E+00  2.1207243738E+00  1.3677222908E+00  7.9022217326E-01
  1.8869565217E+04  1.2657509462E+01  5.5525472539E+00  2.1562421440E+00  1.3833711380E+00  7.9223674619E-01
  1.8966555184E+04  1.2752936272E+01  5.5496335803E+00  2.1921678334E+00  1.3990419631E+00  7.9423458474E-01
  1.9063545151E+04  1.2849089377E+01  5.5468373803E+00  2.2285040008E+00  1.4147453941E+00  7.9621577781E-01
  1.9160535117E+04  1.2945473967E+01  5.5440567687E+00  2.2652532076E+00  1.4304674892E+00  7.9818041243E-01
  1.9257525084E+04  1.3042089423E+01  5.5412915803E+00  2.3024180180E+00  1.4462065336E+00  8.0012854439E-01
  1.9354515050E+04  1.3139271287E+01  5.5386081892E+00  2.3400009992E+00  1.4619696208E+00  8.0206022451E-01
  1.9451505017E+04  1.3236867470E+01  5.5359751233E+00  2.3780047209E+00  1.4777513382E+00  8.0397550754E-01
  1.9548494983E+04  1.3334697742E+01  5.5333563965E+00  2.4164317558E+00  1.4935453580E+00  8.0587445197E-01
  1.9645484950E+04  1.3432877626E+01  5.5307743282E+00  2.4552846793E+00  1.5093531537E+00  8.0775711990E-01
  1.9742474916E+04  1.3531700742E+01  5.5282847349E+00  2.4945660695E+00  1.5251812071E+00  8.0962357686E-01
  1.9839464883E+04  1.3630761230E+01  5.5258084549E+00  2.5342785074E+00  1.5410170392E+00  8.1147389167E-01
  1.9936454849E+04  1.3730058495E+01  5.5233453524E+00  2.5744245766E+00  1.5568590258E+00  8.1330813629E-01
  2.0033444816E+04  1.3829982396E+01  5.5209686488E+00  2.6150284951E+00  1.5727243824E+00  8.1512638569E-01
  2.0130434783E+04  1.3930287799E+01  5.5186309430E+00  2.6561134515E+00  1.5886119898E+00  8.1692871770E-01
  2.0227424749E+04  1.4030833328E+01  5.5163054562E+00  2.6976415048E+00  1.6045015023E+00  8.1871521089E-01
  2.0324414716E+04  1.4131717738E+01  5.5140104134E+00  2.7396152706E+00  1.6203942389E+00  8.2048591173E-01
  2.0421404682E+04  1.4233278699E+01  5.5118072831E+00  2.7820373675E+00  1.6362986601E+00  8.2224089370E-01
  2.0518394649E+04  1.4335083149E+01  5.5096154657E+00  2.8249104164E+00  1.6522007624E+00  8.2398024694E-01
  2.0615384615E+04  1.4437130517E+01  5.5074348501E+00  2.8682370414E+00  1.6680990231E+00  8.2570406365E-01
  2.0712374582E+04  1.4539730014E+01  5.5053212547E+00  2.9120198691E+00  1.6840013247E+00  8.2741243808E-01
  2.0809364548E+04  1.4642802465E+01  5.5032592422E+00  2.9562615289E+00  1.6999040242E+00  8.2910546633E-01
  2.0906354515E+04  1.4746121209E+01  5.5012075852E+00  3.0009646528E+00  1.7157988592E+00  8.3078324627E-01
  2.1003344482E+04  1.4849685688E+01  5.4991661839E+00  3.0461318758E+00  1.7316843760E+00  8.3244587742E-01
  2.1100334448E+04  1.4953984266E+01  5.4972212679E+00  3.0917658353E+00  1.7475745399E+00  8.3409346087E-01
  2.1197324415E+04  1.5058583260E+01  5.4952949331E+00  3.1378691716E+00  1.7634545596E+00  8.3572609913E-01
  2.1294314381E+04  1.5163431376E+01  5.4933780626E+00  3.1844445274E+00  1.7793214505E+00  8.3734389606E-01
  2.1391304348E+04  1.5268620409E+01  5.4914866366E+00  3.2314945484E+00  1.7951768244E+00  8.3894695835E-01
  2.1488294314E+04  1.5374508319E+01  5.4896821558E+00  3.2790218828E+00  1.8110311049E+00  8.4053537592E-01
  2.1585284281E+04  1.5480648738E+01  5.4878863904E+00  3.3270291815E+00  1.8268686101E+00  8.4210923049E-01
  2.1682274247E+04  1.5587041129E+01  5.4860992594E+00  3.3755190979E+00  1.8426880146E+00  8.4366860617E-01
  2.1779264214E+04  1.5693886910E+01  5.4843550809E+00  3.4244942882E+00  1.8584947937E+00  8.4521358931E-01
  2.1876254181E+04  1.5801328090E+01  5.4826771503E+00  3.4739574111E+00  1.8742926347E+00  8.4674426840E-01
  2.1973244147E+04  1.5909024640E+01  5.4810071523E+00  3.5239111281E+00  1.8900689536E+00  8.4826073390E-01
  2.2070234114E+04  1.6016976036E+01  5.4793450149E+00  3.5743581030E+00  1.9058225013E+00  8.4976307817E-01
  2.2167224080E+04  1.6125458636E+01  5.4777368481E+00  3.6253010026E+00  1.9215616622E+00  8.5125139531E-01
  2.2264214047E+04  1.6234467592E+01  5.4761808961E+00  3.6767424958E+00  1.9372852767E+00  8.5272578107E-01
  2.2361204013E+04  1.6343734802E+01  5.4746321468E+00  3.7286867600E+00  1.9529833407E+00  8.5418633266E-01
  2.2458193980E+04  1.6453259754E+01  5.4730905357E+00  3.7814266500E+00  1.9687333263E+00  8.5563314400E-01
  2.2555183946E+04  1.6563357881E+01  5.4716076251E+00  3.8346801326E+00  1.9844663192E+00  8.5706630325E-01
  2.2652173913E+04  1.6673948939E+01  5.4701693464E+00  3.8884499645E+00  2.0001785147E+00  8.5848589981E-01
  2.2749163880E+04  1.6784801157E+01  5.4687375886E+00  3.9427389051E+00  2.0158605442E+00  8.5989202487E-01
  2.2846153846E+04  1.6895914033E+01  5.4673122944E+00  3.9975497169E+00  2.0315112940E+00  8.6128477130E-01
  2.2943143813E+04  1.7007605045E+01  5.4659443308E+00  4.0528851650E+00  2.0471414205E+00  8.6266423355E-01
  2.3040133779E+04  1.7119792349E+01  5.4646196662E+00  4.1087480174E+00  2.0627470447E+00  8.6403050752E-01
  2.3137123746E+04  1.7232243738E+01  5.4633008852E+00  4.1651410449E+00  2.0783186036E+00  8.6538369046E-01
  2.3234113712E+04  1.7344958721E+01  5.4619879372E+00  4.2220670210E+00  2.0938550632E+00  8.6672388085E-01
  2.3331103679E+04  1.7458218640E+01  5.4607250267E+00  4.2795287220E+00  2.1093661266E+00  8.6805117835E-01
  2.3428093645E+04  1.7572016146E+01  5.4595101451E+00  4.3375289270E+00  2.1248507237E+00  8.6936568122E-01
  2.3525083612E+04  1.7686080680E+01  5.4583005512E+00  4.3960704179E+00  2.1402976688E+00  8.7066748146E-01
  2.3622073579E+04  1.7800411764E+01  5.4570962004E+00  4.4551559793E+00  2.1557060065E+00  8.7195667102E-01
  2.3719063545E+04  1.7915215294E+01  5.4559288352E+00  4.5147883985E+00  2.1710828653E+00  8.7323334328E-01
  2.3816053512E+04  1.8030636765E+01  5.4548201176E+00  4.5749704656E+00  2.1864331949E+00  8.7449759288E-01
  2.3913043478E+04  1.8146328228E+01  5.4537161300E+00  4.6357049734E+00  2.2017425941E+00  8.7574951565E-01
  2.4010033445E+04  1.8262289214E+01  5.4526168331E+00  4.6969947173E+00  2.2170101849E+00  8.7698920851E-01
  2.4107023411E+04  1.8378609752E+01  5.4515358655E+00  4.7588424957E+00  2.2322387370E+00  8.7821676935E-01
  2.4204013378E+04  1.8495668760E+01  5.4505298898E+00  4.8212511094E+00  2.2474427536E+00  8.7943229698E-01
  2.4301003344E+04  1.8613000739E+01  5.4495281216E+00  4.8842233620E+00  2.2626028636E+00  8.8063589097E-01
  2.4397993311E+04  1.8730605234E+01  5.4485305267E+00  4.9477620598E+00  2.2777182647E+00  8.8182764841E-01
  2.4494983278E+04  1.8848481788E+01  5.4475370713E+00  5.0118700117E+00  2.2927881741E+00  8.8300766126E-01
  2.4591973244E+04  1.8967124805E+01  5.4466206723E+00  5.0765500294E+00  2.3078322513E+00  8.8417602190E-01
  2.4688963211E+04  1.9086110691E+01  5.4457179174E+00  5.1418049271E+00  2.3228324883E+00  8.8533282375E-01
  2.4785953177E+04  1.9205372099E+01  5.4448188508E+00  5.2076375218E+00  2.3377854084E+00  8.8647816114E-01
  2.4882943144E+04  1.9324908587E+01  5.4439234430E+00  5.2740506329E+00  2.3526903019E+00  8.8761212926E-01
  2.4979933110E+04  1.9445015359E+01  5.4430744965E+00  5.3410470827E+00  2.3675589639E+00  8.8873482408E-01
  2.5076923077E+04  1.9565667680E+01  5.4422676744E+00  5.4087712881E+00  2.3824173218E+00  8.8984634220E-01
  2.5173913043E+04  1.9686598542E+01  5.4414640857E+00  5.4771248552E+00  2.3972330778E+00  8.9094678085E-01
  2.5270903010E+04  1.9807807510E+01  5.4406637051E+00  5.5460741089E+00  2.4119984061E+00  8.9203624266E-01
  2.5367892977E+04  1.9929346841E+01  5.4398740439E+00  5.6156219205E+00  2.4267149604E+00  8.9311482934E-01
  2.5464882943E+04  2.0051673482E+01  5.4391599534E+00  5.6857711640E+00  2.4414020381E+00  8.9418262673E-01
  2.5561872910E+04  2.0174281653E+01  5.4384486707E+00  5.7565247161E+00  2.4560372552E+00  8.9523972123E-01
  2.5658862876E+04  2.0297170932E+01  5.4377401742E+00  5.8278854561E+00  2.4706200353E+00  8.9628620020E-01
  2.5755852843E+04  2.0420340896E+01  5.4370344426E+00  5.8998562663E+00  2.4851498192E+00  8.9732215193E-01
  2.5852842809E+04  2.0544118235E+01  5.4363774773E+00  5.9724400315E+00  2.4996406372E+00  8.9834766548E-01
  2.5949832776E+04  2.0668409308E+01  5.4357553764E+00  6.0456396390E+00  2.5140879530E+00  8.9936283065E-01
  2.6046822742E+04  2.0792984445E+01  5.4351356672E+00  6.1194579792E+00  2.5284810799E+00  9.0036773785E-01
  2.6143812709E+04  2.0917843232E+01  5.4345183315E+00  6.1938979448E+00  2.5428195237E+00  9.0136247807E-01
  2.6240802676E+04  2.1042986428E+01  5.4339035141E+00  6.2689624315E+00  2.5571028596E+00  9.0234714279E-01
  2.6337792642E+04  2.1168965467E+01  5.4333676247E+00  6.3446543373E+00  2.5713558867E+00  9.0332182388E-01
  2.6434782609E+04  2.1295231481E+01  5.4328337576E+00  6.4209765630E+00  2.5855532180E+00  9.0428661358E-01
  2.6531772575E+04  2.1421784067E+01  5.4323018979E+00  6.4979320122E+00  2.5996944212E+00  9.0524160438E-01
  2.6628762542E+04  2.1548622824E+01  5.4317720306E+00  6.5755235909E+00  2.6137790793E+00  9.0618688901E-01
  2.6725752508E+04  2.1675932889E+01  5.4312696088E+00  6.6537542078E+00  2.6278154794E+00  9.0712256034E-01
  2.6822742475E+04  2.1803894282E+01  5.4308187811E+00  6.7326267743E+00  2.6418117863E+00  9.0804871134E-01
  2.6919732441E+04  2.1932145120E+01  5.4303696178E+00  6.8121442044E+00  2.6557507491E+00  9.0896543501E-01
  2.7016722408E+04  2.2060685013E+01  5.4299221069E+00  6.8923094145E+00  2.6696320084E+00  9.0987282248E-01
  2.7113712375E+04  2.2189513570E+01  5.4294762363E+00  6.9731253238E+00  2.6834552197E+00  9.1077095588E-01
  2.7210702341E+04  2.2318954027E+01  5.4290757895E+00  7.0545948541E+00  2.6972355889E+00  9.1165991527E-01
  2.7307692308E+04  2.2448907056E+01  5.4287066747E+00  7.1367209297E+00  2.7109681609E+00  9.1253978136E-01
  2.7404682274E+04  2.2579151975E+01  5.4283388936E+00  7.2195106954E+00  2.7246426845E+00  9.1341063538E-01
  2.7501672241E+04  2.2709688402E+01  5.4279724366E+00  7.3029809326E+00  2.7382607927E+00  9.1427255909E-01
  2.7598662207E+04  2.2840515959E+01  5.4276072943E+00  7.3871169637E+00  2.7518196661E+00  9.1512563461E-01
  2.7695652174E+04  2.2972049616E+01  5.4272989172E+00  7.4719217278E+00  2.7653394571E+00  9.1596994443E-01
  2.7792642140E+04  2.3104002938E+01  5.4270083612E+00  7.5573981668E+00  2.7788059637E+00  9.1680557133E-01
  2.7889632107E+04  2.3236250564E+01  5.4267188329E+00  7.6435492249E+00  2.7922128156E+00  9.1763259829E-01
  2.7986622074E+04  2.3368792123E+01  5.4264303252E+00  7.7303778489E+00  2.8055597844E+00  9.1845110848E-01
  2.8083612040E+04  2.3501627247E+01  5.4261428308E+00  7.8178869883E+00  2.8188466541E+00  9.1926118517E-01
  2.8180602007E+04  2.3635216348E+01  5.4259170983E+00  7.9060795950E+00  2.8320963896E+00  9.2006291168E-01
  2.8277591973E+04  2.3769177993E+01  5.4257021269E+00  7.9949586235E+00  2.8452897434E+00  9.2085637135E-01
  2.8374581940E+04  2.3903436324E+01  5.4254879000E+00  8.0845270307E+00  2.8584227453E+00  9.2164164750E-01
  2.8471571906E+04  2.4037990981E+01  5.4252744126E+00  8.1747877762E+00  2.8714952249E+00  9.2241882332E-01
  2.8568561873E+04  2.4172841605E+01  5.4250616595E+00  8.2657438220E+00  2.8845070230E+00  9.2318798192E-01
  2.8665551839E+04  2.4308447984E+01  5.4249095963E+00  8.3573981326E+00  2.8974816348E+00  9.2394920398E-01
  2.8762541806E+04  2.4444425353E+01  5.4247674016E+00  8.4497536750E+00  2.9103992647E+00  9.2470256310E-01
  2.8859531773E+04  2.4580701757E+01  5.4246256892E+00  8.5428134188E+00  2.9232561122E+00  9.2544813196E-01
  2.8956521739E+04  2.4717276847E+01  5.4244844561E+00  8.6365803360E+00  2.9360520596E+00  9.2618598354E-01
  2.9053511706E+04  2.4854150272E+01  5.4243436989E+00  8.7310574010E+00  2.9487869998E+00  9.2691619110E-01
  2.9150501672E+04  2.4991735508E+01  5.4242567495E+00  8.8262475908E+00  2.9614825449E+00  9.2763882812E-01
  2.9247491639E+04  2.5129735374E+01  5.4241846780E+00  8.9221538848E+00  2.9741231137E+00  9.2835396824E-01
  2.9344481605E+04  2.5268036591E+01  5.4241128461E+00  9.0187792649E+00  2.9867027113E+00  9.2906168523E-01
  2.9441471572E+04  2.5406638816E+01  5.4240412521E+00  9.1161267154E+00  2.9992212678E+00  9.2976205292E-01
  2.9538461538E+04  2.5545541710E+01  5.4239698946E+00  9.2141992231E+00  3.0116787231E+00  9.3045514516E-01
  2.9635451505E+04  2.5685067290E+01  5.4239398978E+00  9.3129997772E+00  3.0240922790E+00  9.3114103578E-01
  2.9732441472E+04  2.5825095801E+01  5.4239354390E+00  9.4125313694E+00  3.0364555628E+00  9.3181979855E-01
  2.9829431438E+04  2.5965427940E+01  5.4239309947E+00  9.5127969938E+00  3.0487579044E+00  9.3249150713E-01
  2.9926421405E+04  2.6106063374E+01  5.4239265649E+00  9.6137996468E+00  3.0609992771E+00  9.3315623506E-01
  3.0023411371E+04  2.6247001772E+01  5.4239221494E+00  9.7156756346E+00  3.0731930011E+00  9.3381405568E-01
  3.0120401338E+04  2.6388429244E+01  5.4239412951E+00  9.8187197457E+00  3.0853775252E+00  9.3446504212E-01
  3.0217391304E+04  2.6530491893E+01  5.4240020205E+00  9.9225198255E+00  3.0975187794E+00  9.3510926524E-01
  3.0314381271E+04  2.6672860409E+01  5.4240625520E+00  1.0027078963E+01  3.1095988442E+00  9.3574679037E-01
  3.0411371237E+04  2.6815534468E+01  5.4241228908E+00  1.0132400250E+01  3.1216177295E+00  9.3637768219E-01
  3.0508361204E+04  2.6958513747E+01  5.4241830382E+00  1.0238486780E+01  3.1335754533E+00  9.3700200552E-01
  3.0605351171E+04  2.7101804896E+01  5.4242438657E+00  1.0345341651E+01  3.1454724280E+00  9.3761982528E-01
  3.0702341137E+04  2.7245906483E+01  5.4243673499E+00  1.0452967961E+01  3.1573363895E+00  9.3823120648E-01
  3.0799331104E+04  2.7390316134E+01  5.4244904473E+00  1.0561368813E+01  3.1691395513E+00  9.3883621413E-01
  3.0896321070E+04  2.7535033534E+01  5.4246131606E+00  1.0670547312E+01  3.1808819586E+00  9.3943491322E-01
  3.0993311037E+04  2.7680058370E+01  5.4247354919E+00  1.0780506564E+01  3.1925636639E+00  9.4002736870E-01
  3.1090301003E+04  2.7825390330E+01  5.4248574438E+00  1.0891249679E+01  3.2041847265E+00  9.4061364542E-01
  3.1187290970E+04  2.7971320081E+01  5.4250147985E+00  1.1002779771E+01  3.2157616305E+00  9.4119380812E-01
