#[MATERIAL DEFINITION FOR MC-GPU: interaction mean free path and sampling data from PENELOPE 2006]
#[MATERIAL NAME]
# AT_AG_SI1_6                                                   
#[NOMINAL DENSITY (g/cm^3)]
#   0.92691100
#[NUMBER OF DATA VALUES]
#   1495
#[MEAN FREE PATHS (cm) (ie, average distance between interactions)]
#[Energy (eV)     | Rayleigh        | Compton         | Photoelectric   | TOTAL (+pair prod) (cm) | Rayleigh: max cumul prob F^2]
  5.0000000000E+03  2.8194457393E+00  7.6541023083E+00  4.7006401013E-02  4.5957937416E-02  3.3793484037E-01
  5.0969899666E+03  2.8819698641E+00  7.6061135827E+00  4.9868340033E-02  4.8706214138E-02  3.4279604277E-01
  5.1939799331E+03  2.9449745233E+00  7.5600492447E+00  5.2845486995E-02  5.1559872928E-02  3.4759023499E-01
  5.2909698997E+03  3.0084460513E+00  7.5157918540E+00  5.5940190128E-02  5.4520615040E-02  3.5232151286E-01
  5.3879598662E+03  3.0723706803E+00  7.4732324056E+00  5.9154800416E-02  5.7590114208E-02  3.5699380274E-01
  5.4849498328E+03  3.1367345862E+00  7.4322696263E+00  6.2492614690E-02  6.0770907629E-02  3.6161090228E-01
  5.5819397993E+03  3.2015239339E+00  7.3928093409E+00  6.5966557537E-02  6.4074575831E-02  3.6617629715E-01
  5.6789297659E+03  3.2667249217E+00  7.3547639023E+00  6.9568630338E-02  6.7492878187E-02  3.7069330565E-01
  5.7759197324E+03  3.3323238254E+00  7.3180516764E+00  7.3301242474E-02  7.1027404420E-02  3.7516510710E-01
  5.8729096990E+03  3.3983070428E+00  7.2825965768E+00  7.7166806411E-02  7.4679711901E-02  3.7959475781E-01
  5.9698996656E+03  3.4646611486E+00  7.2483276460E+00  8.1167737651E-02  7.8451324711E-02  3.8398507792E-01
  6.0668896321E+03  3.5313735808E+00  7.2151788388E+00  8.5326248770E-02  8.2362175993E-02  3.8833857743E-01
  6.1638795987E+03  3.5984338191E+00  7.1830889404E+00  8.9635910318E-02  8.6405348900E-02  3.9265766904E-01
  6.2608695652E+03  3.6658332930E+00  7.1520011675E+00  9.4090693680E-02  9.0574345133E-02  3.9694469696E-01
  6.3578595318E+03  3.7335637548E+00  7.1218624389E+00  9.8693116638E-02  9.4870609706E-02  4.0120192773E-01
  6.4548494983E+03  3.8016257927E+00  7.0926458287E+00  1.0344570070E-01  9.9295559867E-02  4.0543132830E-01
  6.5518394649E+03  3.8700124889E+00  7.0643081376E+00  1.0835115503E-01  1.0385073625E-01  4.0963464626E-01
  6.6488294314E+03  3.9387066609E+00  7.0367814497E+00  1.1341190935E-01  1.0853736443E-01  4.1381359435E-01
  6.7458193980E+03  4.0077004895E+00  7.0100244220E+00  1.1863043248E-01  1.1335667274E-01  4.1796985888E-01
  6.8428093645E+03  4.0769864199E+00  6.9839983245E+00  1.2400926104E-01  1.1830990701E-01  4.2210498824E-01
  6.9397993311E+03  4.1465571919E+00  6.9586668767E+00  1.2955093514E-01  1.2339827049E-01  4.2622023651E-01
  7.0367892977E+03  4.2164066104E+00  6.9339982127E+00  1.3527313912E-01  1.2863661618E-01  4.3031680911E-01
  7.1337792642E+03  4.2865506687E+00  6.9100224245E+00  1.4119008279E-01  1.3403647865E-01  4.3439590546E-01
  7.2307692308E+03  4.3569630876E+00  6.8866473646E+00  1.4728053036E-01  1.3957727795E-01  4.3845866231E-01
  7.3277591973E+03  4.4276401757E+00  6.8638459497E+00  1.5354713369E-01  1.4526009628E-01  4.4250595986E-01
  7.4247491639E+03  4.4985783280E+00  6.8415926491E+00  1.5999254883E-01  1.5108596843E-01  4.4653861432E-01
  7.5217391304E+03  4.5697867241E+00  6.8198963352E+00  1.6661943601E-01  1.5705591343E-01  4.5055744676E-01
  7.6187290970E+03  4.6412657819E+00  6.7987428678E+00  1.7343045951E-01  1.6317088519E-01  4.5456323154E-01
  7.7157190635E+03  4.7129959967E+00  6.7780683948E+00  1.8042828772E-01  1.6943173344E-01  4.5855653591E-01
  7.8127090301E+03  4.7849740170E+00  6.7578525140E+00  1.8761559297E-01  1.7583929617E-01  4.6253788352E-01
  7.9096989967E+03  4.8572156680E+00  6.7381228106E+00  1.9499505158E-01  1.8239442148E-01  4.6650780769E-01
  8.0066889632E+03  4.9297122908E+00  6.7188459652E+00  2.0257305242E-01  1.8910106801E-01  4.7046677678E-01
  8.1036789298E+03  5.0024484669E+00  6.6999719327E+00  2.1040048149E-01  1.9600167173E-01  4.7441510532E-01
  8.2006688963E+03  5.0754278708E+00  6.6814984487E+00  2.1843163457E-01  2.0305449988E-01  4.7835309884E-01
  8.2976588629E+03  5.1486776390E+00  6.6634670074E+00  2.2666930324E-01  2.1026027925E-01  4.8228106785E-01
  8.3946488294E+03  5.2221649477E+00  6.6457925502E+00  2.3511628363E-01  2.1761946600E-01  4.8619922237E-01
  8.4916387960E+03  5.2958887261E+00  6.6284641012E+00  2.4377551627E-01  2.2513269195E-01  4.9010769540E-01
  8.5886287625E+03  5.3698942193E+00  6.6115512792E+00  2.5265173759E-01  2.3280223829E-01  4.9400663034E-01
  8.6856187291E+03  5.4441350646E+00  6.5949555052E+00  2.6174583525E-01  2.4062668281E-01  4.9789614452E-01
  8.7826086957E+03  5.5186144864E+00  6.5786749751E+00  2.7106062806E-01  2.4860639045E-01  5.0177625595E-01
  8.8795986622E+03  5.5933775679E+00  6.5627692650E+00  2.8059893918E-01  2.5674185490E-01  5.0564697595E-01
  8.9765886288E+03  5.6683727799E+00  6.5471454812E+00  2.9036359614E-01  2.6503309527E-01  5.0950833714E-01
  9.0735785953E+03  5.7436204308E+00  6.5318266168E+00  3.0038086856E-01  2.7349981743E-01  5.1336030655E-01
  9.1705685619E+03  5.8191432386E+00  6.5168305864E+00  3.1063918929E-01  2.8213008311E-01  5.1720274473E-01
  9.2675585284E+03  5.8948953447E+00  6.5020863587E+00  3.2113420136E-01  2.9091772166E-01  5.2103552131E-01
  9.3645484950E+03  5.9709338615E+00  6.4876570908E+00  3.3186879720E-01  2.9986303773E-01  5.2485851866E-01
  9.4615384615E+03  6.0472251784E+00  6.4734889489E+00  3.4284587377E-01  3.0896583253E-01  5.2867163133E-01
  9.5585284281E+03  6.1237620776E+00  6.4595677940E+00  3.5406833254E-01  3.1822597827E-01  5.3247476160E-01
  9.6555183946E+03  6.2006024842E+00  6.4459454235E+00  3.6553907942E-01  3.2764363311E-01  5.3626772814E-01
  9.7525083612E+03  6.2776686755E+00  6.4325320754E+00  3.7726102476E-01  3.3721817541E-01  5.4005028093E-01
  9.8494983278E+03  6.3550445654E+00  6.4194041866E+00  3.8923708325E-01  3.4694980755E-01  5.4382218244E-01
  9.9464882943E+03  6.4326696072E+00  6.4064931662E+00  4.0147017395E-01  3.5683786906E-01  5.4758320757E-01
  1.0043478261E+04  6.5105688591E+00  6.3938169067E+00  4.1400284747E-01  3.6691325475E-01  5.5133314325E-01
  1.0140468227E+04  6.5887629703E+00  6.3813827065E+00  4.2685049250E-01  3.7718483504E-01  5.5507178482E-01
  1.0237458194E+04  6.6671969374E+00  6.3691391252E+00  4.3996862020E-01  3.8761424723E-01  5.5879887455E-01
  1.0334448161E+04  6.7459742633E+00  6.3571586387E+00  4.5336027509E-01  3.9820159388E-01  5.6251411493E-01
  1.0431438127E+04  6.8249675411E+00  6.3453376165E+00  4.6702850664E-01  4.0894547105E-01  5.6621722059E-01
  1.0528428094E+04  6.9043333334E+00  6.3337822628E+00  4.8097636921E-01  4.1984624207E-01  5.6990791839E-01
  1.0625418060E+04  6.9839237619E+00  6.3223813431E+00  4.9520692200E-01  4.3090221893E-01  5.7358594715E-01
  1.0722408027E+04  7.0638699181E+00  6.3112170452E+00  5.0972322906E-01  4.4211352540E-01  5.7725104708E-01
  1.0819397993E+04  7.1440705417E+00  6.3002162749E+00  5.2452835918E-01  4.5347863716E-01  5.8090291427E-01
  1.0916387960E+04  7.2246133241E+00  6.2894284088E+00  5.3962538593E-01  4.6499730437E-01  5.8454124083E-01
  1.1013377926E+04  7.3054361556E+00  6.2788087839E+00  5.5501738756E-01  4.7666814295E-01  5.8816573149E-01
  1.1110367893E+04  7.3865923188E+00  6.2683835837E+00  5.7070744699E-01  4.8849057142E-01  5.9177610315E-01
  1.1207357860E+04  7.4680482569E+00  6.2581269777E+00  5.8671336689E-01  5.0047400064E-01  5.9537208326E-01
  1.1304347826E+04  7.5498350242E+00  6.2480514726E+00  6.0306315951E-01  5.1263537721E-01  5.9895338116E-01
  1.1401337793E+04  7.6319337731E+00  6.2381405716E+00  6.1972283557E-01  5.2494619138E-01  6.0251969204E-01
  1.1498327759E+04  7.7143688143E+00  6.2284025272E+00  6.3669555168E-01  5.3740545746E-01  6.0607072297E-01
  1.1595317726E+04  7.7971188046E+00  6.2188207705E+00  6.5398446933E-01  5.5001174514E-01  6.0960619337E-01
  1.1692307692E+04  7.8802202154E+00  6.2094086366E+00  6.7159275488E-01  5.6276408245E-01  6.1312583547E-01
  1.1789297659E+04  7.9636285256E+00  6.2001401622E+00  6.8952357951E-01  5.7566072940E-01  6.1662938833E-01
  1.1886287625E+04  8.0474148074E+00  6.1910430242E+00  7.0778011919E-01  5.8870094002E-01  6.2011656073E-01
  1.1983277592E+04  8.1314870871E+00  6.1820726195E+00  7.2636555465E-01  6.0188242982E-01  6.2358706593E-01
  1.2080267559E+04  8.2159771279E+00  6.1732801545E+00  7.4528307135E-01  6.1520495206E-01  6.2704062990E-01
  1.2177257525E+04  8.3007175211E+00  6.1645932105E+00  7.6453585943E-01  6.2866537847E-01  6.3047699104E-01
  1.2274247492E+04  8.3859305776E+00  6.1560956464E+00  7.8412711371E-01  6.4226430366E-01  6.3389590006E-01
  1.2371237458E+04  8.4713416469E+00  6.1476781164E+00  8.0406003363E-01  6.5599738343E-01  6.3729711964E-01
  1.2468227425E+04  8.5572973266E+00  6.1394662022E+00  8.2433782321E-01  6.6986647365E-01  6.4068042429E-01
  1.2565217391E+04  8.6434489714E+00  6.1313287635E+00  8.4502717784E-01  6.8390787871E-01  6.4404560006E-01
  1.2662207358E+04  8.7300982319E+00  6.1233697550E+00  8.6610203904E-01  6.9810299466E-01  6.4739245107E-01
  1.2759197324E+04  8.8170148531E+00  6.1155056934E+00  8.8753540523E-01  7.1242757027E-01  6.5072078105E-01
  1.2856187291E+04  8.9043527535E+00  6.1077855655E+00  9.0933057374E-01  7.2688144443E-01  6.5403035564E-01
  1.2953177258E+04  8.9920548203E+00  6.1001873705E+00  9.3149084679E-01  7.4146213850E-01  6.5732095026E-01
  1.3050167224E+04  9.0800788590E+00  6.0926940262E+00  9.5401953148E-01  7.5616723712E-01  6.6059235265E-01
  1.3147157191E+04  9.1685871423E+00  6.0853545856E+00  9.7691993974E-01  7.7099673451E-01  6.6384436264E-01
  1.3244147157E+04  9.2572980987E+00  6.0780778356E+00  1.0001953883E+00  7.8594526901E-01  6.6707679190E-01
  1.3341137124E+04  9.3466284738E+00  6.0709888067E+00  1.0238491987E+00  8.0101594385E-01  6.7028946372E-01
  1.3438127090E+04  9.4361696569E+00  6.0639608719E+00  1.0478846973E+00  8.1620167728E-01  6.7348221278E-01
  1.3535117057E+04  9.5261937634E+00  6.0570721312E+00  1.0723052149E+00  8.3150382295E-01  6.7665488120E-01
  1.3632107023E+04  9.6165866784E+00  6.0502867281E+00  1.0971140873E+00  8.4691885910E-01  6.7980729761E-01
  1.3729096990E+04  9.7072961631E+00  6.0435872457E+00  1.1223453277E+00  8.6246204874E-01  6.8293929410E-01
  1.3826086957E+04  9.7985625690E+00  6.0370383896E+00  1.1480257962E+00  8.7814778611E-01  6.8605071465E-01
  1.3923076923E+04  9.8900400504E+00  6.0305423356E+00  1.1741079336E+00  8.9393877413E-01  6.8914141477E-01
  1.4020066890E+04  9.9821088317E+00  6.0241993767E+00  1.2005951531E+00  9.0983810798E-01  6.9221126125E-01
  1.4117056856E+04  1.0074485302E+01  6.0179314719E+00  1.2274908729E+00  9.2583958537E-01  6.9526013193E-01
  1.4214046823E+04  1.0167234976E+01  6.0117537119E+00  1.2547985162E+00  9.4194184643E-01  6.9828791536E-01
  1.4311036789E+04  1.0260532836E+01  6.0057086399E+00  1.2825215109E+00  9.5814525716E-01  7.0129451042E-01
  1.4408026756E+04  1.0354047981E+01  5.9997104163E+00  1.3106632897E+00  9.7444255525E-01  7.0427981470E-01
  1.4505016722E+04  1.0448190283E+01  5.9938585752E+00  1.3392272904E+00  9.9083769261E-01  7.0724372067E-01
  1.4602006689E+04  1.0542653294E+01  5.9880757011E+00  1.3682169553E+00  1.0073236670E+00  7.1018613073E-01
  1.4698996656E+04  1.0637463083E+01  5.9823664422E+00  1.3976357315E+00  1.0238984843E+00  7.1310695788E-01
  1.4795986622E+04  1.0732896942E+01  5.9767941787E+00  1.4274870709E+00  1.0405643140E+00  7.1600612551E-01
  1.4892976589E+04  1.0828555050E+01  5.9712634626E+00  1.4577744302E+00  1.0573122950E+00  7.1888356708E-01
  1.4989966555E+04  1.0924781952E+01  5.9658516125E+00  1.4885012705E+00  1.0741457429E+00  7.2173922589E-01
  1.5086956522E+04  1.1021437816E+01  5.9605247936E+00  1.5197567076E+00  1.0911041614E+00  7.2457305456E-01
  1.5183946488E+04  1.1118321227E+01  5.9552368206E+00  1.5514716406E+00  1.1081432616E+00  7.2738500540E-01
  1.5280936455E+04  1.1215980968E+01  5.9501067543E+00  1.5836398894E+00  1.1252652015E+00  7.3017502711E-01
  1.5377926421E+04  1.1313884831E+01  5.9450161852E+00  1.6162649891E+00  1.1424582398E+00  7.3294307720E-01
  1.5474916388E+04  1.1412179096E+01  5.9399958617E+00  1.6493504797E+00  1.1597224972E+00  7.3568912273E-01
  1.5571906355E+04  1.1511119292E+01  5.9350984041E+00  1.6828999062E+00  1.1770603193E+00  7.3841313995E-01
  1.5668896321E+04  1.1610294940E+01  5.9302353562E+00  1.7169168181E+00  1.1944616728E+00  7.4111511408E-01
  1.5765886288E+04  1.1710016488E+01  5.9254704996E+00  1.7514047698E+00  1.2119299692E+00  7.4379503900E-01
  1.5862876254E+04  1.1810248871E+01  5.9207946223E+00  1.7863673206E+00  1.2294622142E+00  7.4645291531E-01
  1.5959866221E+04  1.1910720369E+01  5.9161509037E+00  1.8218080344E+00  1.2470506472E+00  7.4908873875E-01
  1.6056856187E+04  1.2011871541E+01  5.9116272615E+00  1.8577304798E+00  1.2647016000E+00  7.5170250744E-01
  1.6153846154E+04  1.2113420354E+01  5.9071651275E+00  1.8941382302E+00  1.2824071006E+00  7.5429422803E-01
  1.6250836120E+04  1.2215212065E+01  5.9027330426E+00  1.9310348636E+00  1.3001614888E+00  7.5686391541E-01
  1.6347826087E+04  1.2317793278E+01  5.8984369283E+00  1.9684239626E+00  1.3179737514E+00  7.5941159247E-01
  1.6444816054E+04  1.2420683056E+01  5.8941811704E+00  2.0063091145E+00  1.3358315135E+00  7.6193728977E-01
  1.6541806020E+04  1.2523825413E+01  5.8899545818E+00  2.0446939112E+00  1.3537310623E+00  7.6444104483E-01
  1.6638795987E+04  1.2627829301E+01  5.8858717313E+00  2.0835819493E+00  1.3716832796E+00  7.6692289298E-01
  1.6735785953E+04  1.2732084862E+01  5.8818154168E+00  2.1229768296E+00  1.3896725714E+00  7.6938286821E-01
  1.6832775920E+04  1.2836635058E+01  5.8777934058E+00  2.1628821578E+00  1.4076973918E+00  7.7182101173E-01
  1.6929765886E+04  1.2942025697E+01  5.8739052426E+00  2.2033015439E+00  1.4257677867E+00  7.7423737198E-01
  1.7026755853E+04  1.3047672138E+01  5.8700418411E+00  2.2442386025E+00  1.4438682207E+00  7.7663200436E-01
  1.7123745819E+04  1.3153624310E+01  5.8662120140E+00  2.2856969527E+00  1.4619973925E+00  7.7900497098E-01
  1.7220735786E+04  1.3260426944E+01  5.8625122755E+00  2.3276802180E+00  1.4801658518E+00  7.8135633979E-01
  1.7317725753E+04  1.3367489628E+01  5.8588356299E+00  2.3701920262E+00  1.4983574616E+00  7.8368617590E-01
  1.7414715719E+04  1.3474835657E+01  5.8551860150E+00  2.4132360099E+00  1.5165703663E+00  7.8599454341E-01
  1.7511705686E+04  1.3583075276E+01  5.8516687839E+00  2.4568541870E+00  1.5348322154E+00  7.8828151271E-01
  1.7608695652E+04  1.3691579310E+01  5.8481730750E+00  2.5012968917E+00  1.5532200695E+00  7.9054716040E-01
  1.7705685619E+04  1.3800346942E+01  5.8446986391E+00  2.5462924968E+00  1.5716227168E+00  7.9279156907E-01
  1.7802675585E+04  1.3910005171E+01  5.8413516921E+00  2.5918447904E+00  1.5900538313E+00  7.9501482699E-01
  1.7899665552E+04  1.4019970536E+01  5.8380313369E+00  2.6379575656E+00  1.6084964656E+00  7.9721702508E-01
  1.7996655518E+04  1.4130203941E+01  5.8347307968E+00  2.6846346204E+00  1.6269472773E+00  7.9939824824E-01
  1.8093645485E+04  1.4241237001E+01  5.8315387298E+00  2.7318797578E+00  1.6454180995E+00  8.0155858470E-01
  1.8190635452E+04  1.4352680512E+01  5.8283884006E+00  2.7796967855E+00  1.6638966116E+00  8.0369812823E-01
  1.8287625418E+04  1.4464396535E+01  5.8252565123E+00  2.8280895163E+00  1.6823768995E+00  8.0581697789E-01
  1.8384615385E+04  1.4576783484E+01  5.8222084885E+00  2.8770617679E+00  1.7008677225E+00  8.0791523777E-01
  1.8481605351E+04  1.4689721770E+01  5.8192231437E+00  2.9266173627E+00  1.7193638566E+00  8.0999301671E-01
  1.8578595318E+04  1.4802937070E+01  5.8162549436E+00  2.9767601281E+00  1.7378555954E+00  8.1205042808E-01
  1.8675585284E+04  1.4916655586E+01  5.8133404565E+00  3.0274938962E+00  1.7563472429E+00  8.1408758951E-01
  1.8772575251E+04  1.5031105126E+01  5.8105153219E+00  3.0788225039E+00  1.7748434348E+00  8.1610462264E-01
  1.8869565217E+04  1.5145836212E+01  5.8077061083E+00  3.1307497930E+00  1.7933293045E+00  8.1810165294E-01
  1.8966555184E+04  1.5260862586E+01  5.8049149586E+00  3.1832796098E+00  1.8118031676E+00  8.2007880941E-01
  1.9063545151E+04  1.5376839704E+01  5.8022455095E+00  3.2364158057E+00  1.8302825819E+00  8.2203622504E-01
  1.9160535117E+04  1.5493102933E+01  5.7995908257E+00  3.2901622364E+00  1.8487460029E+00  8.2397405113E-01
  1.9257525084E+04  1.5609651526E+01  5.7969507513E+00  3.3445227627E+00  1.8671914031E+00  8.2589241009E-01
  1.9354515050E+04  1.5726932924E+01  5.7943950448E+00  3.3995012498E+00  1.8856306312E+00  8.2779141321E-01
  1.9451505017E+04  1.5844744497E+01  5.7918906626E+00  3.4551015678E+00  1.9040557921E+00  8.2967117607E-01
  1.9548494983E+04  1.5962846043E+01  5.7893998112E+00  3.5113275911E+00  1.9224576156E+00  8.3153181833E-01
  1.9645484950E+04  1.6081390484E+01  5.7869459787E+00  3.5681831992E+00  1.9408390899E+00  8.3337346345E-01
  1.9742474916E+04  1.6200766443E+01  5.7845878839E+00  3.6256722757E+00  1.9592109698E+00  8.3519623848E-01
  1.9839464883E+04  1.6320437014E+01  5.7822422993E+00  3.6837987092E+00  1.9775544693E+00  8.3700027384E-01
  1.9936454849E+04  1.6440401478E+01  5.7799090979E+00  3.7425663926E+00  1.9958677734E+00  8.3878570306E-01
  2.0033444816E+04  1.6561171861E+01  5.7776653467E+00  3.8020193769E+00  2.0141773328E+00  8.4055266261E-01
  2.0130434783E+04  1.6682426395E+01  5.7754611881E+00  3.8621998014E+00  2.0324812275E+00  8.4230129167E-01
  2.0227424749E+04  1.6803979495E+01  5.7732684587E+00  3.9230363347E+00  2.0507502475E+00  8.4403173066E-01
  2.0324414716E+04  1.6925959892E+01  5.7711063420E+00  3.9845329272E+00  2.0689871066E+00  8.4574409722E-01
  2.0421404682E+04  1.7048807670E+01  5.7690395096E+00  4.0466935339E+00  2.0872053774E+00  8.4743851894E-01
  2.0518394649E+04  1.7171958657E+01  5.7669832051E+00  4.1095221146E+00  2.1053843490E+00  8.4911513398E-01
  2.0615384615E+04  1.7295412164E+01  5.7649373257E+00  4.1730226337E+00  2.1235224161E+00  8.5077408295E-01
  2.0712374582E+04  1.7419567931E+01  5.7629605452E+00  4.2371990600E+00  2.1416321747E+00  8.5241550867E-01
  2.0809364548E+04  1.7544323743E+01  5.7610366603E+00  4.3020553672E+00  2.1597087574E+00  8.5403955603E-01
  2.0906354515E+04  1.7669386678E+01  5.7591223594E+00  4.3675955333E+00  2.1777403844E+00  8.5564637178E-01
  2.1003344482E+04  1.7794756064E+01  5.7572175505E+00  4.4338235411E+00  2.1957255768E+00  8.5723610437E-01
  2.1100334448E+04  1.7921058114E+01  5.7554127905E+00  4.5007433778E+00  2.2136858636E+00  8.5880890381E-01
  2.1197324415E+04  1.8047736903E+01  5.7536262972E+00  4.5683590350E+00  2.2315997889E+00  8.6036492143E-01
  2.1294314381E+04  1.8174726709E+01  5.7518485103E+00  4.6366745091E+00  2.2494635991E+00  8.6190430982E-01
  2.1391304348E+04  1.8302144291E+01  5.7500962066E+00  4.7056938007E+00  2.2672803643E+00  8.6342722192E-01
  2.1488294314E+04  1.8430444901E+01  5.7484339240E+00  4.7754209152E+00  2.2850661199E+00  8.6493379470E-01
  2.1585284281E+04  1.8559061043E+01  5.7467796048E+00  4.8458598622E+00  2.3027983518E+00  8.6642415944E-01
  2.1682274247E+04  1.8687992069E+01  5.7451331753E+00  4.9170146559E+00  2.3204757997E+00  8.6789844965E-01
  2.1779264214E+04  1.8817491973E+01  5.7435306205E+00  4.9888893147E+00  2.3381071410E+00  8.6935680086E-01
  2.1876254181E+04  1.8947739912E+01  5.7419963757E+00  5.0614878617E+00  2.3556983764E+00  8.7079935046E-01
  2.1973244147E+04  1.9078307209E+01  5.7404693251E+00  5.1348143243E+00  2.3732317774E+00  8.7222623750E-01
  2.2070234114E+04  1.9209193232E+01  5.7389494036E+00  5.2088727342E+00  2.3907062049E+00  8.7363760255E-01
  2.2167224080E+04  1.9340743487E+01  5.7374849163E+00  5.2836671276E+00  2.4081344375E+00  8.7503358752E-01
  2.2264214047E+04  1.9472952012E+01  5.7360740398E+00  5.3592015449E+00  2.4255153951E+00  8.7641433551E-01
  2.2361204013E+04  1.9605483697E+01  5.7346696409E+00  5.4354814754E+00  2.4428349683E+00  8.7777999058E-01
  2.2458193980E+04  1.9738337924E+01  5.7332716619E+00  5.5127894347E+00  2.4601475816E+00  8.7913069173E-01
  2.2555183946E+04  1.9871905609E+01  5.7319340731E+00  5.5908563592E+00  2.4774124463E+00  8.8046656982E-01
  2.2652173913E+04  2.0006087410E+01  5.7306421664E+00  5.6696863837E+00  2.4946247188E+00  8.8178775654E-01
  2.2749163880E+04  2.0140596143E+01  5.7293560689E+00  5.7492836477E+00  2.5117716661E+00  8.8309438509E-01
  2.2846153846E+04  2.0275431206E+01  5.7280757297E+00  5.8296522952E+00  2.5288523681E+00  8.8438658998E-01
  2.2943143813E+04  2.0410982551E+01  5.7268543470E+00  5.9107964750E+00  2.5458825331E+00  8.8566450693E-01
  2.3040133779E+04  2.0547149747E+01  5.7256772625E+00  5.9927203400E+00  2.5628572537E+00  8.8692827272E-01
  2.3137123746E+04  2.0683647619E+01  5.7245053631E+00  6.0754280481E+00  2.5797636505E+00  8.8817802499E-01
  2.3234113712E+04  2.0820475577E+01  5.7233386044E+00  6.1589237614E+00  2.5966009134E+00  8.8941390219E-01
  2.3331103679E+04  2.0957976059E+01  5.7222231789E+00  6.2432116466E+00  2.6133832376E+00  8.9063604339E-01
  2.3428093645E+04  2.1096140200E+01  5.7211570014E+00  6.3282958751E+00  2.6301096842E+00  8.9184458520E-01
  2.3525083612E+04  2.1234638728E+01  5.7200954260E+00  6.4141806223E+00  2.6467652277E+00  8.9303965572E-01
  2.3622073579E+04  2.1373471070E+01  5.7190384142E+00  6.5008700686E+00  2.6633491625E+00  8.9422138241E-01
  2.3719063545E+04  2.1512885514E+01  5.7180191105E+00  6.5883683985E+00  2.6798719599E+00  8.9538989373E-01
  2.3816053512E+04  2.1653057579E+01  5.7170601405E+00  6.6766798010E+00  2.6963410072E+00  8.9654531910E-01
  2.3913043478E+04  2.1793567712E+01  5.7161052279E+00  6.7658084696E+00  2.7127369692E+00  8.9768778870E-01
  2.4010033445E+04  2.1934415352E+01  5.7151543390E+00  6.8557586021E+00  2.7290592397E+00  8.9881743336E-01
  2.4107023411E+04  2.2075708036E+01  5.7142217072E+00  6.9465344009E+00  2.7453122016E+00  8.9993438443E-01
  2.4204013378E+04  2.2217898438E+01  5.7133664460E+00  7.0381400725E+00  2.7615162324E+00  9.0103877371E-01
  2.4301003344E+04  2.2360430554E+01  5.7125147324E+00  7.1305798280E+00  2.7776453703E+00  9.0213073325E-01
  2.4397993311E+04  2.2503303835E+01  5.7116665376E+00  7.2238578826E+00  2.7936991022E+00  9.0321039144E-01
  2.4494983278E+04  2.2646517738E+01  5.7108218332E+00  7.3179784563E+00  2.8096769384E+00  9.0427786987E-01
  2.4591973244E+04  2.2790657177E+01  5.7100566233E+00  7.4129457728E+00  2.8256060299E+00  9.0533329008E-01
  2.4688963211E+04  2.2935221084E+01  5.7093048291E+00  7.5087640607E+00  2.8414624940E+00  9.0637677430E-01
  2.4785953177E+04  2.3080129780E+01  5.7085560809E+00  7.6054375526E+00  2.8572421826E+00  9.0740844527E-01
  2.4882943144E+04  2.3225382734E+01  5.7078103546E+00  7.7029704853E+00  2.8729446919E+00  9.0842842621E-01
  2.4979933110E+04  2.3371325979E+01  5.7071122271E+00  7.8013671001E+00  2.8885863593E+00  9.0943684063E-01
  2.5076923077E+04  2.3517930575E+01  5.7064571930E+00  7.9008938675E+00  2.9042010120E+00  9.1043381229E-01
  2.5173913043E+04  2.3664883544E+01  5.7058047623E+00  8.0013675859E+00  2.9197467726E+00  9.1141946508E-01
  2.5270903010E+04  2.3812184367E+01  5.7051549146E+00  8.1027249041E+00  2.9352140337E+00  9.1239392202E-01
  2.5367892977E+04  2.3959893968E+01  5.7045154665E+00  8.2049701519E+00  2.9506055146E+00  9.1335729965E-01
  2.5464882943E+04  2.4108545272E+01  5.7039538619E+00  8.3081076640E+00  2.9659473023E+00  9.1430971212E-01
  2.5561872910E+04  2.4257548470E+01  5.7033944472E+00  8.4121417791E+00  2.9812101485E+00  9.1525127401E-01
  2.5658862876E+04  2.4406903055E+01  5.7028372057E+00  8.5170768405E+00  2.9963937989E+00  9.1618210024E-01
  2.5755852843E+04  2.4556608524E+01  5.7022821207E+00  8.6229171961E+00  3.0114980181E+00  9.1710230600E-01
  2.5852842809E+04  2.4707044516E+01  5.7017769555E+00  8.7296671979E+00  3.0265417556E+00  9.1801200661E-01
  2.5949832776E+04  2.4858102260E+01  5.7013072869E+00  8.8373312027E+00  3.0415194595E+00  9.1891131749E-01
  2.6046822742E+04  2.5009514855E+01  5.7008394090E+00  8.9459135712E+00  3.0564175408E+00  9.1980035403E-01
  2.6143812709E+04  2.5161281808E+01  5.7003733083E+00  9.0554186690E+00  3.0712358318E+00  9.2067923104E-01
  2.6240802676E+04  2.5313403979E+01  5.6999091399E+00  9.1658508657E+00  3.0859742511E+00  9.2154805802E-01
  2.6337792642E+04  2.5466519856E+01  5.6995261072E+00  9.2772145353E+00  3.1006655833E+00  9.2240694154E-01
  2.6434782609E+04  2.5619993974E+01  5.6991445081E+00  9.3895140564E+00  3.1152771128E+00  9.2325598842E-01
  2.6531772575E+04  2.5773825852E+01  5.6987643319E+00  9.5027538116E+00  3.1298087338E+00  9.2409530561E-01
  2.6628762542E+04  2.5928015011E+01  5.6983855681E+00  9.6169381880E+00  3.1442603561E+00  9.2492500018E-01
  2.6725752508E+04  2.6082774973E+01  5.6980345594E+00  9.7320715769E+00  3.1586431414E+00  9.2574517921E-01
  2.6822742475E+04  2.6238313407E+01  5.6977363020E+00  9.8481583741E+00  3.1729680257E+00  9.2655594971E-01
  2.6919732441E+04  2.6394212928E+01  5.6974391366E+00  9.9652029795E+00  3.1872131026E+00  9.2735741856E-01
  2.7016722408E+04  2.6550473069E+01  5.6971430553E+00  1.0083209797E+01  3.2013783371E+00  9.2814969698E-01
  2.7113712375E+04  2.6707093365E+01  5.6968480505E+00  1.0202183236E+01  3.2154637084E+00  9.2893289261E-01
  2.7210702341E+04  2.6864445128E+01  5.6965993570E+00  1.0322127708E+01  3.2294891228E+00  9.2970710026E-01
  2.7307692308E+04  2.7022414293E+01  5.6963824254E+00  1.0443047631E+01  3.2434485668E+00  9.3047241492E-01
  2.7404682274E+04  2.7180747340E+01  5.6961662712E+00  1.0564951679E+01  3.2573289224E+00  9.3122893188E-01
  2.7501672241E+04  2.7339443815E+01  5.6959508888E+00  1.0687858249E+01  3.2711315083E+00  9.3197674664E-01
  2.7598662207E+04  2.7498503266E+01  5.6957362727E+00  1.0811754016E+01  3.2848546518E+00  9.3271595483E-01
  2.7695652174E+04  2.7658400392E+01  5.6955796145E+00  1.0936643419E+01  3.2985243471E+00  9.3344665215E-01
  2.7792642140E+04  2.7818807560E+01  5.6954407585E+00  1.1062530901E+01  3.3121228529E+00  9.3416893429E-01
  2.7889632107E+04  2.7979581351E+01  5.6953023895E+00  1.1189420909E+01  3.3256424426E+00  9.3488289685E-01
  2.7986622074E+04  2.8140721323E+01  5.6951645042E+00  1.1317317894E+01  3.3390831992E+00  9.3558863530E-01
  2.8083612040E+04  2.8302227036E+01  5.6950270993E+00  1.1446226312E+01  3.3524452165E+00  9.3628624489E-01
  2.8180602007E+04  2.8464622860E+01  5.6949527242E+00  1.1576150621E+01  3.3657577858E+00  9.3697582063E-01
  2.8277591973E+04  2.8627474402E+01  5.6948888771E+00  1.1707095286E+01  3.3789969342E+00  9.3765745720E-01
  2.8374581940E+04  2.8790695249E+01  5.6948252492E+00  1.1839064775E+01  3.3921580048E+00  9.3833124893E-01
  2.8471571906E+04  2.8954284973E+01  5.6947618392E+00  1.1972063559E+01  3.4052411286E+00  9.3899728973E-01
  2.8568561873E+04  2.9118243146E+01  5.6946986456E+00  1.2106096115E+01  3.4182464460E+00  9.3965567305E-01
  2.8665551839E+04  2.9283091009E+01  5.6946972953E+00  1.2241166922E+01  3.4312036429E+00  9.4030648939E-01
  2.8762541806E+04  2.9448392393E+01  5.6947055607E+00  1.2377280465E+01  3.4440882397E+00  9.4094982123E-01
  2.8859531773E+04  2.9614065706E+01  5.6947137983E+00  1.2514441232E+01  3.4568958069E+00  9.4158574979E-01
  2.8956521739E+04  2.9780110532E+01  5.6947220083E+00  1.2652653717E+01  3.4696265170E+00  9.4221435642E-01
  2.9053511706E+04  2.9946526455E+01  5.6947301908E+00  1.2791922414E+01  3.4822805508E+00  9.4283572254E-01
  2.9150501672E+04  3.0113779940E+01  5.6947930702E+00  1.2932251825E+01  3.4948849960E+00  9.4344992956E-01
  2.9247491639E+04  3.0281535736E+01  5.6948707094E+00  1.3073646454E+01  3.5074207766E+00  9.4405705885E-01
  2.9344481605E+04  3.0449666025E+01  5.6949480927E+00  1.3216110810E+01  3.5198807548E+00  9.4465719165E-01
  2.9441471572E+04  3.0618170400E+01  5.6950252216E+00  1.3359649406E+01  3.5322651385E+00  9.4525040905E-01
  2.9538461538E+04  3.0787048458E+01  5.6951020979E+00  1.3504266758E+01  3.5445741426E+00  9.4583679194E-01
  2.9635451505E+04  3.0956661630E+01  5.6952208465E+00  1.3649967387E+01  3.5568291954E+00  9.4641642092E-01
  2.9732441472E+04  3.1126875518E+01  5.6953652671E+00  1.3796755817E+01  3.5690226787E+00  9.4698937631E-01
  2.9829431438E+04  3.1297466397E+01  5.6955092210E+00  1.3944636578E+01  3.5811417371E+00  9.4755573808E-01
  2.9926421405E+04  3.1468433872E+01  5.6956527112E+00  1.4093614201E+01  3.5931866082E+00  9.4811558583E-01
  3.0023411371E+04  3.1639777550E+01  5.6957957407E+00  1.4243861956E+01  3.6051683451E+00  9.4866899873E-01
  3.0120401338E+04  3.1811705534E+01  5.6959623928E+00  1.4395753774E+01  3.6171224568E+00  9.4921605549E-01
  3.0217391304E+04  3.1984381229E+01  5.6961710996E+00  1.4548768763E+01  3.6290247828E+00  9.4975683215E-01
  3.0314381271E+04  3.2157436354E+01  5.6963791452E+00  1.4702911576E+01  3.6408536900E+00  9.5029139874E-01
  3.0411371237E+04  3.2330870525E+01  5.6965865338E+00  1.4858186876E+01  3.6526094419E+00  9.5081982439E-01
  3.0508361204E+04  3.2504683360E+01  5.6967932695E+00  1.5014599325E+01  3.6642923077E+00  9.5134217823E-01
  3.0605351171E+04  3.2678882271E+01  5.6970002457E+00  1.5172153592E+01  3.6759030300E+00  9.5185852932E-01
  3.0702341137E+04  3.2854024947E+01  5.6972707786E+00  1.5330854350E+01  3.6874754460E+00  9.5236894665E-01
  3.0799331104E+04  3.3029549448E+01  5.6975404710E+00  1.5490706275E+01  3.6989760536E+00  9.5287349903E-01
  3.0896321070E+04  3.3205455400E+01  5.6978093281E+00  1.5651714048E+01  3.7104051375E+00  9.5337225509E-01
  3.0993311037E+04  3.3381742431E+01  5.6980773553E+00  1.5813882355E+01  3.7217629863E+00  9.5386528325E-01
  3.1090301003E+04  3.3558410171E+01  5.6983445575E+00  1.5977215885E+01  3.7330498931E+00  9.5435265164E-01
  3.1187290970E+04  3.3735784020E+01  5.6986474542E+00  1.6141719331E+01  3.7442859317E+00  9.5483442811E-01
