#[MATERIAL DEFINITION FOR MC-GPU: interaction mean free path and sampling data from PENELOPE 2006]
#[MATERIAL NAME]
# bgo                                                           
#[NOMINAL DENSITY (g/cm^3)]
#   7.13000000
#[NUMBER OF DATA VALUES]
#   1495
#[MEAN FREE PATHS (cm) (ie, average distance between interactions)]
#[Energy (eV)     | Rayleigh        | Compton         | Photoelectric   | TOTAL (+pair prod) (cm) | Rayleigh: max cumul prob F^2]
  5.0000000000E+03  2.2773892692E-02  3.1557254584E+00  2.5329623209E-04  2.5049012027E-04  1.1505680403E-01
  5.0969899666E+03  2.3025099656E-02  3.1134146470E+00  2.6569861675E-04  2.6264540054E-04  1.1820311463E-01
  5.1939799331E+03  2.3278126478E-02  3.0726913080E+00  2.7845629589E-04  2.7514009649E-04  1.2135211214E-01
  5.2909698997E+03  2.3532997089E-02  3.0334670034E+00  2.9157249054E-04  2.8797679458E-04  1.2450274552E-01
  5.3879598662E+03  2.3789731972E-02  2.9956596019E+00  3.0505038973E-04  3.0115804066E-04  1.2765401909E-01
  5.4849498328E+03  2.4048348260E-02  2.9591927261E+00  3.1890814818E-04  3.1470094478E-04  1.3080499512E-01
  5.5819397993E+03  2.4308859805E-02  2.9239952573E+00  3.3331466422E-04  3.2876921726E-04  1.3395479153E-01
  5.6789297659E+03  2.4571277246E-02  2.8900008906E+00  3.4810612453E-04  3.4320256676E-04  1.3710257974E-01
  5.7759197324E+03  2.4835608063E-02  2.8571477342E+00  3.6328594720E-04  3.5800368365E-04  1.4024758243E-01
  5.8729096990E+03  2.5101856624E-02  2.8253779483E+00  3.7885752143E-04  3.7317521980E-04  1.4338905507E-01
  5.9698996656E+03  2.5370024204E-02  2.7946374212E+00  3.9482420827E-04  3.8871978939E-04  1.4652620475E-01
  6.0668896321E+03  2.5640107984E-02  2.7648755966E+00  4.1122375827E-04  4.0467329866E-04  1.4965827644E-01
  6.1638795987E+03  2.5912099312E-02  2.7360453976E+00  4.2804323935E-04  4.2102248107E-04  1.5278456169E-01
  6.2608695652E+03  2.6185984041E-02  2.7081029152E+00  4.4527100229E-04  4.3775535796E-04  1.5590439385E-01
  6.3578595318E+03  2.6461745252E-02  2.6810068591E+00  4.6291037292E-04  4.5487445520E-04  1.5901714635E-01
  6.4548494983E+03  2.6739599823E-02  2.6547280963E+00  4.8096465187E-04  4.7238233728E-04  1.6212223102E-01
  6.5518394649E+03  2.7019597516E-02  2.6292321983E+00  4.9943711514E-04  4.9028149557E-04  1.6521909160E-01
  6.6488294314E+03  2.7301480209E-02  2.6044745243E+00  5.1833101467E-04  5.0857428641E-04  1.6830716783E-01
  6.7458193980E+03  2.7585222576E-02  2.5804222993E+00  5.3764957885E-04  5.2726310215E-04  1.7138592491E-01
  6.8428093645E+03  2.7870796806E-02  2.5570445378E+00  5.5739601301E-04  5.4635030164E-04  1.7445486210E-01
  6.9397993311E+03  2.8158172582E-02  2.5343119213E+00  5.7757349995E-04  5.6583821057E-04  1.7751351002E-01
  7.0367892977E+03  2.8447345737E-02  2.5121977270E+00  5.9829366640E-04  5.8583312931E-04  1.8056142921E-01
  7.1337792642E+03  2.8739149058E-02  2.4907067206E+00  6.1963990481E-04  6.0641424619E-04  1.8359820895E-01
  7.2307692308E+03  2.9032719433E-02  2.4697836790E+00  6.4144316306E-04  6.2741815955E-04  1.8662346196E-01
  7.3277591973E+03  2.9328012905E-02  2.4494049889E+00  6.6370687389E-04  6.4884733433E-04  1.8963680824E-01
  7.4247491639E+03  2.9624983696E-02  2.4295481954E+00  6.8643444917E-04  6.7070420108E-04  1.9263788867E-01
  7.5217391304E+03  2.9924107403E-02  2.4102095327E+00  7.0962928030E-04  6.9299143802E-04  1.9562636838E-01
  7.6187290970E+03  3.0225537163E-02  2.3913746087E+00  7.3329473861E-04  7.1571155977E-04  1.9860193566E-01
  7.7157190635E+03  3.0528577418E-02  2.3730019589E+00  7.5743417568E-04  7.3886657043E-04  2.0156430095E-01
  7.8127090301E+03  3.0833176159E-02  2.3550730531E+00  7.8205092380E-04  7.6245877264E-04  2.0451319578E-01
  7.9096989967E+03  3.1140125616E-02  2.3375970065E+00  8.0714829621E-04  7.8649097775E-04  2.0744837184E-01
  8.0066889632E+03  3.1449185559E-02  2.3205500711E+00  8.3272748282E-04  8.1096336994E-04  2.1036960003E-01
  8.1036789298E+03  3.1759719580E-02  2.3038975842E+00  8.5876457871E-04  8.3585205997E-04  2.1327666955E-01
  8.2006688963E+03  3.2071938083E-02  2.2876323295E+00  8.8529047360E-04  8.6118566031E-04  2.1616938705E-01
  8.2976588629E+03  3.2386916159E-02  2.2717738613E+00  9.1230837493E-04  8.8696716829E-04  2.1904756818E-01
  8.3946488294E+03  3.2703260703E-02  2.2562669942E+00  9.3982147280E-04  9.1319774907E-04  2.2191103421E-01
  8.4916387960E+03  3.3020967381E-02  2.2410998672E+00  9.6785675526E-04  9.3990196876E-04  2.2475963392E-01
  8.5886287625E+03  3.3341705119E-02  2.2263104319E+00  9.9674231546E-04  9.6738933205E-04  2.2759323068E-01
  8.6856187291E+03  3.3663693241E-02  2.2118348802E+00  1.0261502462E-03  9.9534787383E-04  2.3041170139E-01
  8.7826086957E+03  3.3987088063E-02  2.1976675354E+00  1.0560839831E-03  1.0237799959E-03  2.3321493579E-01
  8.8795986622E+03  3.4313407807E-02  2.1838419925E+00  1.0865469455E-03  1.0526893865E-03  2.3600283586E-01
  8.9765886288E+03  3.4640855004E-02  2.1702969260E+00  1.1175425367E-03  1.0820766621E-03  2.3877531516E-01
  9.0735785953E+03  3.4970127025E-02  2.1570429907E+00  1.1490829110E-03  1.1119529150E-03  2.4153229830E-01
  9.1705685619E+03  3.5301830143E-02  2.1440881548E+00  1.1811658612E-03  1.1423157606E-03  2.4427372035E-01
  9.2675585284E+03  3.5634528193E-02  2.1313839657E+00  1.2137920148E-03  1.1731633389E-03  2.4699952632E-01
  9.3645484950E+03  3.5969840765E-02  2.1189667035E+00  1.2469647196E-03  1.2044995704E-03  2.4970967064E-01
  9.4615384615E+03  3.6306696259E-02  2.1067992029E+00  1.2806873082E-03  1.2363254559E-03  2.5240411670E-01
  9.5585284281E+03  3.6644925389E-02  2.0948694640E+00  1.3149630989E-03  1.2686428996E-03  2.5508283634E-01
  9.6555183946E+03  3.6985901531E-02  2.0832067576E+00  1.3497953957E-03  1.3014556826E-03  2.5774580945E-01
  9.7525083612E+03  3.7327661966E-02  2.0717522207E+00  1.3851874880E-03  1.3347634867E-03  2.6039302350E-01
  9.8494983278E+03  3.7672173668E-02  2.0605505498E+00  1.4211426518E-03  1.3685708814E-03  2.6302447318E-01
  9.9464882943E+03  3.8017941143E-02  2.0495564981E+00  1.4576641489E-03  1.4028779896E-03  2.6564015999E-01
  1.0043478261E+04  3.8365536706E-02  2.0387785615E+00  1.4948911216E-03  1.4378133051E-03  2.6824009185E-01
  1.0140468227E+04  3.8715262351E-02  2.0282184921E+00  1.5328671297E-03  1.4734160797E-03  2.7082428199E-01
  1.0237458194E+04  3.9065999873E-02  2.0178423863E+00  1.5714317105E-03  1.5095350145E-03  2.7339275331E-01
  1.0334448161E+04  3.9419621759E-02  2.0076915351E+00  1.6105882618E-03  1.5461750186E-03  2.7594553961E-01
  1.0431438127E+04  3.9773722480E-02  1.9977010544E+00  1.6503401685E-03  1.5833344846E-03  2.7848267942E-01
  1.0528428094E+04  4.0131000644E-02  1.9879321011E+00  1.6906908026E-03  1.6210197420E-03  2.8100421556E-01
  1.0625418060E+04  4.0488845888E-02  1.9783161530E+00  1.7316435239E-03  1.6592286134E-03  2.8351019482E-01
  1.0722408027E+04  4.0849375704E-02  1.9688996195E+00  1.7732016793E-03  1.6979666472E-03  2.8600066780E-01
  1.0819397993E+04  4.1210894580E-02  1.9596373740E+00  1.8153686039E-03  1.7372329453E-03  2.8847568861E-01
  1.0916387960E+04  4.1574719705E-02  1.9505562268E+00  1.8581476203E-03  1.7770318131E-03  2.9093531466E-01
  1.1013377926E+04  4.1939839468E-02  1.9416282004E+00  1.9015420394E-03  1.8173633863E-03  2.9337960650E-01
  1.1110367893E+04  4.2307001627E-02  1.9328665393E+00  1.3768606962E-03  1.3325444613E-03  2.9580862757E-01
  1.1207357860E+04  4.2675647750E-02  1.9242544836E+00  1.4079942250E-03  1.3620592813E-03  2.9822244402E-01
  1.1304347826E+04  4.3046186802E-02  1.9157974484E+00  1.4395552900E-03  1.3919592984E-03  3.0062112454E-01
  1.1401337793E+04  4.3418283046E-02  1.9074842502E+00  1.4715447763E-03  1.4222444607E-03  3.0300474020E-01
  1.1498327759E+04  4.3792237052E-02  1.8993179362E+00  1.5039647747E-03  1.4529165140E-03  3.0537336425E-01
  1.1595317726E+04  4.4167705530E-02  1.8912875265E+00  1.5368173685E-03  1.4839764918E-03  3.0772707201E-01
  1.1692307692E+04  4.4545110816E-02  1.8833989085E+00  1.5701046334E-03  1.5154262747E-03  3.1006594185E-01
  1.1789297659E+04  4.4923872060E-02  1.8756361802E+00  1.6039166547E-03  1.5473484961E-03  3.1239006021E-01
  1.1886287625E+04  4.5304763269E-02  1.8680130437E+00  1.6383957002E-03  1.5798756034E-03  3.1469951606E-01
  1.1983277592E+04  4.5686736303E-02  1.8605037773E+00  1.6733264663E-03  1.6128051728E-03  3.1699439932E-01
  1.2080267559E+04  4.6071146444E-02  1.8531346556E+00  1.7087111397E-03  1.6461403630E-03  3.1927480086E-01
  1.2177257525E+04  4.6456248847E-02  1.8458654518E+00  1.7445518999E-03  1.6798803839E-03  3.2154081239E-01
  1.2274247492E+04  4.6844209346E-02  1.8387395694E+00  1.7808509192E-03  1.7140295208E-03  3.2379252638E-01
  1.2371237458E+04  4.7232357322E-02  1.8316977871E+00  1.8176103630E-03  1.7485856068E-03  3.2603003594E-01
  1.2468227425E+04  4.7623898005E-02  1.8248050069E+00  1.8548323895E-03  1.7835544752E-03  3.2825343480E-01
  1.2565217391E+04  4.8015612721E-02  1.8179912757E+00  1.8925321912E-03  1.8189450669E-03  3.3046281718E-01
  1.2662207358E+04  4.8410153627E-02  1.8113094494E+00  1.9307057204E-03  1.8547568327E-03  3.3265827774E-01
  1.2759197324E+04  4.8805499887E-02  1.8047152615E+00  1.9693488644E-03  1.8909824193E-03  3.3483991150E-01
  1.2856187291E+04  4.9202911051E-02  1.7982325187E+00  2.0084637606E-03  1.9276250846E-03  3.3700781380E-01
  1.2953177258E+04  4.9601909502E-02  1.7918490176E+00  2.0480525400E-03  1.9646854829E-03  3.3916208021E-01
  1.3050167224E+04  5.0002099747E-02  1.7855549134E+00  2.0881173269E-03  2.0021643265E-03  3.4130280697E-01
  1.3147157191E+04  5.0404769310E-02  1.7793737386E+00  2.1288273735E-03  2.0402185731E-03  3.4343009478E-01
  1.3244147157E+04  5.0807686159E-02  1.7732591594E+00  2.1701093749E-03  2.0787762151E-03  3.4554404565E-01
  1.3341137124E+04  5.1214005081E-02  1.7672716408E+00  2.2118817165E-03  2.1177669241E-03  3.4764476125E-01
  1.3438127090E+04  5.1620634414E-02  1.7613482563E+00  1.1382037025E-03  1.1129447476E-03  3.4973234291E-01
  1.3535117057E+04  5.2029540772E-02  1.7555258916E+00  1.1601756069E-03  1.1341366544E-03  3.5180689160E-01
  1.3632107023E+04  5.2439898175E-02  1.7497864218E+00  1.1824101559E-03  1.1555735137E-03  3.5386850791E-01
  1.3729096990E+04  5.2851298656E-02  1.7441205447E+00  1.2049308084E-03  1.1772773154E-03  3.5591729206E-01
  1.3826086957E+04  5.3265398322E-02  1.7385581004E+00  1.2277555006E-03  1.1992657813E-03  3.5795334378E-01
  1.3923076923E+04  5.3679813755E-02  1.7330520951E+00  1.2508484099E-03  1.2215032762E-03  3.5997676239E-01
  1.4020066890E+04  5.4097054201E-02  1.7276485366E+00  1.2742107859E-03  1.2439920997E-03  3.6198764672E-01
  1.4117056856E+04  5.4515247296E-02  1.7223103687E+00  1.2978438755E-03  1.2667322513E-03  3.6398609509E-01
  1.4214046823E+04  5.4934783747E-02  1.7170437225E+00  1.3217489227E-03  1.2897249114E-03  3.6597220532E-01
  1.4311036789E+04  5.5356765614E-02  1.7118673514E+00  1.3459271686E-03  1.3129716818E-03  3.6794607270E-01
  1.4408026756E+04  5.5779105859E-02  1.7067413913E+00  1.3703798516E-03  1.3364723455E-03  3.6990779273E-01
  1.4505016722E+04  5.6204284052E-02  1.7017100427E+00  1.3951082070E-03  1.3602293097E-03  3.7185746736E-01
  1.4602006689E+04  5.6630444608E-02  1.6967378140E+00  1.4201134675E-03  1.3842424545E-03  3.7379519792E-01
  1.4698996656E+04  5.7057716817E-02  1.6918260762E+00  1.4453968630E-03  1.4085128000E-03  3.7572108488E-01
  1.4795986622E+04  5.7487705860E-02  1.6870022582E+00  1.4709596208E-03  1.4330423041E-03  3.7763522782E-01
  1.4892976589E+04  5.7918094119E-02  1.6822235776E+00  1.4968029652E-03  1.4578304634E-03  3.7953772551E-01
  1.4989966555E+04  5.8350801612E-02  1.6775232160E+00  1.5229281180E-03  1.4828794489E-03  3.8142867582E-01
  1.5086956522E+04  5.8785046328E-02  1.6728858371E+00  1.5497556411E-03  1.5085870701E-03  3.8330817579E-01
  1.5183946488E+04  5.9219708915E-02  1.6682908722E+00  1.5769283114E-03  1.5346133835E-03  3.8517632157E-01
  1.5280936455E+04  5.9657750387E-02  1.6637889570E+00  1.6043997807E-03  1.5609162359E-03  3.8703320850E-01
  1.5377926421E+04  6.0096296230E-02  1.6593286988E+00  1.6321714058E-03  1.5874946990E-03  3.8887893101E-01
  1.5474916388E+04  6.0536116089E-02  1.6549227159E+00  1.6602445413E-03  1.6143503335E-03  3.9071358273E-01
  1.5571906355E+04  6.0978550357E-02  1.6505928087E+00  1.6886205393E-03  1.6414851613E-03  3.9253725641E-01
  1.5668896321E+04  6.1421440924E-02  1.6463010104E+00  1.7173007494E-03  1.6688986319E-03  3.9435004397E-01
  1.5765886288E+04  6.1866379350E-02  1.6420736474E+00  1.7462865187E-03  1.6965929559E-03  3.9615203648E-01
  1.5862876254E+04  6.2313182260E-02  1.6379063572E+00  1.3365642854E-03  1.3074536190E-03  3.9794332418E-01
  1.5959866221E+04  6.2760458950E-02  1.6337749489E+00  1.3571710264E-03  1.3273646346E-03  3.9972399646E-01
  1.6056856187E+04  6.3210408503E-02  1.6297154204E+00  1.3792055167E-03  1.3486378775E-03  4.0149414189E-01
  1.6153846154E+04  6.3661619684E-02  1.6257030641E+00  1.4014477449E-03  1.3701051245E-03  4.0325384821E-01
  1.6250836120E+04  6.4113321768E-02  1.6217245165E+00  1.4239102117E-03  1.3917778272E-03  4.0500320235E-01
  1.6347826087E+04  6.4568172381E-02  1.6178227056E+00  1.4465957933E-03  1.4136598871E-03  4.0674229042E-01
  1.6444816054E+04  6.5023829379E-02  1.6139581088E+00  1.2936966855E-03  1.2674636113E-03  4.0847119768E-01
  1.6541806020E+04  6.5480021459E-02  1.6101258329E+00  1.3132030840E-03  1.2863560492E-03  4.1019001130E-01
  1.6638795987E+04  6.5939633218E-02  1.6063717922E+00  1.3328868463E-03  1.3054163261E-03  4.1189881997E-01
  1.6735785953E+04  6.6399771557E-02  1.6026482474E+00  1.3527485352E-03  1.3246437544E-03  4.1359771067E-01
  1.6832775920E+04  6.6860636438E-02  1.5989580075E+00  1.3727887123E-03  1.3440388560E-03  4.1528676938E-01
  1.6929765886E+04  6.7324746953E-02  1.5953404559E+00  1.3930079374E-03  1.3636031339E-03  4.1696608110E-01
  1.7026755853E+04  6.7789400188E-02  1.5917516846E+00  1.4134067689E-03  1.3833359179E-03  4.1863572984E-01
  1.7123745819E+04  6.8254822296E-02  1.5881948978E+00  1.4339857639E-03  1.4032377395E-03  4.2029579869E-01
  1.7220735786E+04  6.8723463513E-02  1.5847078398E+00  1.4547454777E-03  1.4233101160E-03  4.2194636977E-01
  1.7317725753E+04  6.9192663283E-02  1.5812479583E+00  1.4756864645E-03  1.4435523374E-03  4.2358752429E-01
  1.7414715719E+04  6.9662525112E-02  1.5778165335E+00  1.4968092767E-03  1.4639648783E-03  4.2521934252E-01
  1.7511705686E+04  7.0135727189E-02  1.5744543435E+00  1.5181379071E-03  1.4845718194E-03  4.2684190387E-01
  1.7608695652E+04  7.0609503358E-02  1.5711178293E+00  1.5398226993E-03  1.5055155156E-03  4.2845528680E-01
  1.7705685619E+04  7.1083851148E-02  1.5678066550E+00  1.5616953607E-03  1.5266348704E-03  4.3005956895E-01
  1.7802675585E+04  7.1561477843E-02  1.5645614956E+00  1.5837564737E-03  1.5479316399E-03  4.3165482706E-01
  1.7899665552E+04  7.2039859379E-02  1.5613431328E+00  1.6060066195E-03  1.5694050926E-03  4.3324113702E-01
  1.7996655518E+04  7.2518827799E-02  1.5581487284E+00  1.6284463778E-03  1.5910555946E-03  4.3481857388E-01
  1.8093645485E+04  7.3000652233E-02  1.5550118354E+00  1.6510763270E-03  1.6128847339E-03  4.3638721187E-01
  1.8190635452E+04  7.3483666896E-02  1.5519067036E+00  1.6738970439E-03  1.6348921497E-03  4.3794712437E-01
  1.8287625418E+04  7.3967283448E-02  1.5488242352E+00  1.6969091041E-03  1.6570779901E-03  4.3949838399E-01
  1.8384615385E+04  7.4453183114E-02  1.5457888764E+00  1.7201130820E-03  1.6794435784E-03  4.4104106251E-01
  1.8481605351E+04  7.4940856980E-02  1.5427923458E+00  1.7435095503E-03  1.7019891169E-03  4.4257523224E-01
  1.8578595318E+04  7.5429147488E-02  1.5398172631E+00  1.7670990805E-03  1.7247144403E-03  4.4410096624E-01
  1.8675585284E+04  7.5918998460E-02  1.5368770669E+00  1.7908822430E-03  1.7476204998E-03  4.4561833646E-01
  1.8772575251E+04  7.6411355948E-02  1.5339847770E+00  1.8150285728E-03  1.7708691189E-03  4.4712741397E-01
  1.8869565217E+04  7.6904344587E-02  1.5311127930E+00  1.8394602864E-03  1.7943849834E-03  4.4862826899E-01
  1.8966555184E+04  7.7398021692E-02  1.5282617226E+00  1.8640929266E-03  1.8180875826E-03  4.5012097090E-01
  1.9063545151E+04  7.7895085601E-02  1.5254695623E+00  1.8889271038E-03  1.8419789457E-03  4.5160558823E-01
  1.9160535117E+04  7.8392794934E-02  1.5226966343E+00  1.9139634270E-03  1.8660579880E-03  4.5308218872E-01
  1.9257525084E+04  7.8891147256E-02  1.5199427099E+00  1.9392025041E-03  1.8903251683E-03  4.5455083929E-01
  1.9354515050E+04  7.9391963459E-02  1.5172330537E+00  1.9646449418E-03  1.9147820442E-03  4.5601160606E-01
  1.9451505017E+04  7.9894414468E-02  1.5145553659E+00  1.9902913452E-03  1.9394286084E-03  4.5746455441E-01
  1.9548494983E+04  8.0397522516E-02  1.5118956870E+00  2.0161423184E-03  1.9642647330E-03  4.5890974892E-01
  1.9645484950E+04  8.0901903003E-02  1.5092623347E+00  2.0421984643E-03  1.9892912579E-03  4.6034725342E-01
  1.9742474916E+04  8.1409115119E-02  1.5066762820E+00  2.0684603844E-03  2.0145096421E-03  4.6177713103E-01
  1.9839464883E+04  8.1916998102E-02  1.5041073014E+00  2.0949286792E-03  2.0399189949E-03  4.6319944410E-01
  1.9936454849E+04  8.2425549554E-02  1.5015551977E+00  2.1216039477E-03  2.0655197624E-03  4.6461425430E-01
  2.0033444816E+04  8.2936805318E-02  1.4990473364E+00  2.1485241902E-03  2.0913491770E-03  4.6602162256E-01
  2.0130434783E+04  8.3449481312E-02  1.4965656904E+00  2.1757251502E-03  2.1174401233E-03  4.6742160914E-01
  2.0227424749E+04  8.3962839399E-02  1.4941000511E+00  2.2031370952E-03  2.1437259002E-03  4.6881427193E-01
  2.0324414716E+04  8.4477390803E-02  1.4916570849E+00  2.2307606365E-03  2.1702073141E-03  4.7019966960E-01
  2.0421404682E+04  8.4994878539E-02  1.4892595416E+00  2.2585963842E-03  2.1968860453E-03  4.7157786269E-01
  2.0518394649E+04  8.5513061797E-02  1.4868771846E+00  2.2866449471E-03  2.2237610227E-03  4.7294891102E-01
  2.0615384615E+04  8.6031938216E-02  1.4845098466E+00  2.3149069330E-03  2.2508326941E-03  4.7431287367E-01
  2.0712374582E+04  8.6553094644E-02  1.4821780779E+00  2.3433829484E-03  2.2781026552E-03  4.7566980901E-01
  2.0809364548E+04  8.7076120958E-02  1.4798759718E+00  2.3720735988E-03  2.3055710938E-03  4.7701977468E-01
  2.0906354515E+04  8.7599853691E-02  1.4775881214E+00  2.4009794885E-03  2.3332376231E-03  4.7836282763E-01
  2.1003344482E+04  8.8124290513E-02  1.4753143728E+00  2.4301012205E-03  2.3611026840E-03  4.7969902414E-01
  2.1100334448E+04  8.8651917838E-02  1.4730863202E+00  2.4594393970E-03  2.3891686068E-03  4.8102841981E-01
  2.1197324415E+04  8.9180523236E-02  1.4708751253E+00  2.4889946189E-03  2.4174341974E-03  4.8235106957E-01
  2.1294314381E+04  8.9709845812E-02  1.4686773212E+00  2.5187674859E-03  2.4458996979E-03  4.8366702771E-01
  2.1391304348E+04  9.0240350142E-02  1.4664986408E+00  2.5487585968E-03  2.4745659104E-03  4.8497634788E-01
  2.1488294314E+04  9.0773843226E-02  1.4643614131E+00  2.5789685491E-03  2.5034347228E-03  4.8627908310E-01
  2.1585284281E+04  9.1308066403E-02  1.4622369042E+00  2.6093979394E-03  2.5325048099E-03  4.8757528576E-01
  2.1682274247E+04  9.1843017385E-02  1.4601249816E+00  2.6400473631E-03  2.5617766014E-03  4.8886500766E-01
  2.1779264214E+04  9.2379707012E-02  1.4580380018E+00  2.6709174145E-03  2.5912513618E-03  4.9014829999E-01
  2.1876254181E+04  9.2918844331E-02  1.4559842707E+00  2.7020086870E-03  2.6209301402E-03  4.9142521336E-01
  2.1973244147E+04  9.3458722209E-02  1.4539424984E+00  2.7333217728E-03  2.6508119701E-03  4.9269579779E-01
  2.2070234114E+04  9.3999338389E-02  1.4519125630E+00  2.7648572630E-03  2.6808972747E-03  4.9396010274E-01
  2.2167224080E+04  9.4542068832E-02  1.4499109940E+00  2.7966157478E-03  2.7111876671E-03  4.9521817712E-01
  2.2264214047E+04  9.5086885695E-02  1.4479370119E+00  2.8285978162E-03  2.7416835850E-03  4.9647006925E-01
  2.2361204013E+04  9.5632453459E-02  1.4459742804E+00  2.8608058194E-03  2.7723859631E-03  4.9771582695E-01
  2.2458193980E+04  9.6178769894E-02  1.4440226870E+00  2.8935792293E-03  2.8036133572E-03  4.9895549747E-01
  2.2555183946E+04  9.6727393215E-02  1.4421006077E+00  2.9265842196E-03  2.8350534091E-03  5.0018912757E-01
  2.2652173913E+04  9.7277923223E-02  1.4402028644E+00  2.9598214182E-03  2.8667062486E-03  5.0141676346E-01
  2.2749163880E+04  9.7829214349E-02  1.4383157108E+00  2.9932914518E-03  2.8985712983E-03  5.0263845085E-01
  2.2846153846E+04  9.8381264394E-02  1.4364390429E+00  3.0269949462E-03  2.9306490017E-03  5.0385423496E-01
  2.2943143813E+04  9.8935629426E-02  1.4345908727E+00  3.0609325263E-03  2.9629412754E-03  5.0506416049E-01
  2.3040133779E+04  9.9491904501E-02  1.4327660766E+00  3.0951048158E-03  2.9954482228E-03  5.0626827169E-01
  2.3137123746E+04  1.0004895079E-01  1.4309512527E+00  3.1295124375E-03  3.0281692189E-03  5.0746661229E-01
  2.3234113712E+04  1.0060676613E-01  1.4291463049E+00  3.1641560132E-03  3.0611047009E-03  5.0865922557E-01
  2.3331103679E+04  1.0116671871E-01  1.4273667776E+00  3.1990361638E-03  3.0942564596E-03  5.0984615508E-01
  2.3428093645E+04  1.0172876913E-01  1.4256118384E+00  3.2341535090E-03  3.1276249353E-03  5.1102744539E-01
  2.3525083612E+04  1.0229160074E-01  1.4238662939E+00  3.2695086678E-03  3.1612092745E-03  5.1220313981E-01
  2.3622073579E+04  1.0285521140E-01  1.4221300553E+00  3.3051022581E-03  3.1950099081E-03  5.1337328119E-01
  2.3719063545E+04  1.0342059462E-01  1.4204141957E+00  3.3409348968E-03  3.2290282936E-03  5.1453791185E-01
  2.3816053512E+04  1.0398844902E-01  1.4187262092E+00  3.3770071999E-03  3.2632656222E-03  5.1569707366E-01
  2.3913043478E+04  1.0455709448E-01  1.4170470768E+00  3.4133197826E-03  3.2977206058E-03  5.1685080798E-01
  2.4010033445E+04  1.0512652889E-01  1.4153767163E+00  3.4498732588E-03  3.3323936693E-03  5.1799915571E-01
  2.4107023411E+04  1.0569718331E-01  1.4137198186E+00  3.4866682418E-03  3.3672857021E-03  5.1914215727E-01
  2.4204013378E+04  1.0627086876E-01  1.4120960523E+00  3.5237053439E-03  3.4023991139E-03  5.2027985265E-01
  2.4301003344E+04  1.0684535501E-01  1.4104806337E+00  3.5609851762E-03  3.4377319492E-03  5.2141228135E-01
  2.4397993311E+04  1.0742063998E-01  1.4088734867E+00  3.5985083493E-03  3.4732846268E-03  5.2253948246E-01
  2.4494983278E+04  1.0799672160E-01  1.4072745362E+00  3.6362754726E-03  3.5090575636E-03  5.2366149462E-01
  2.4591973244E+04  1.0857594584E-01  1.4057089758E+00  3.6742871546E-03  3.5450538385E-03  5.2477835604E-01
  2.4688963211E+04  1.0915629826E-01  1.4041547292E+00  3.7125440030E-03  3.5812716398E-03  5.2589010453E-01
  2.4785953177E+04  1.0973745905E-01  1.4026082849E+00  3.7510466246E-03  3.6177110232E-03  5.2699677744E-01
  2.4882943144E+04  1.1031942619E-01  1.4010695734E+00  3.7897956252E-03  3.6543723998E-03  5.2809841176E-01
  2.4979933110E+04  1.1090359131E-01  1.3995532774E+00  3.8287916098E-03  3.6912578253E-03  5.2919504405E-01
  2.5076923077E+04  1.1148983416E-01  1.3980578059E+00  3.8683586779E-03  3.7286681701E-03  5.3028671047E-01
  2.5173913043E+04  1.1207689495E-01  1.3965696961E+00  3.9082644577E-03  3.7663856467E-03  5.3137344680E-01
  2.5270903010E+04  1.1266477165E-01  1.3950888835E+00  3.9484259098E-03  3.8043329114E-03  5.3245528844E-01
  2.5367892977E+04  1.1325371122E-01  1.3936178944E+00  3.9888436801E-03  3.8425107071E-03  5.3353227041E-01
  2.5464882943E+04  1.1384587031E-01  1.3921789330E+00  4.0295184135E-03  3.8809221592E-03  5.3460442734E-01
  2.5561872910E+04  1.1443885679E-01  1.3907469192E+00  4.0704507542E-03  3.9195647905E-03  5.3567179352E-01
  2.5658862876E+04  1.1503266867E-01  1.3893217934E+00  4.1116413453E-03  3.9584390331E-03  5.3673440286E-01
  2.5755852843E+04  1.1562730398E-01  1.3879034964E+00  4.1530908294E-03  3.9975453174E-03  5.3779228892E-01
  2.5852842809E+04  1.1622431481E-01  1.3865077597E+00  4.1947998479E-03  4.0368860806E-03  5.3884548491E-01
  2.5949832776E+04  1.1682325254E-01  1.3851297260E+00  4.2367690417E-03  4.0764612251E-03  5.3989402370E-01
  2.6046822742E+04  1.1742302508E-01  1.3837581951E+00  4.2789990505E-03  4.1162697816E-03  5.4093793793E-01
  2.6143812709E+04  1.1802363049E-01  1.3823931124E+00  4.3214905134E-03  4.1563121746E-03  5.4197726081E-01
  2.6240802676E+04  1.1862507240E-01  1.3810344795E+00  4.3642440687E-03  4.1965888343E-03  5.4301202505E-01
  2.6337792642E+04  1.1922998561E-01  1.3797084245E+00  4.4072603538E-03  4.2371037586E-03  5.4404226297E-01
  2.6434782609E+04  1.1983574296E-01  1.3783885101E+00  4.4505400053E-03  4.2778538737E-03  5.4506800653E-01
  2.6531772575E+04  1.2044234253E-01  1.3770746854E+00  4.4940836589E-03  4.3188395981E-03  5.4608928735E-01
  2.6628762542E+04  1.2104978240E-01  1.3757669002E+00  4.5378919496E-03  4.3600613486E-03  5.4710613671E-01
  2.6725752508E+04  1.2165895331E-01  1.3744738246E+00  4.5819655116E-03  4.4015207983E-03  5.4811858554E-01
  2.6822742475E+04  1.2227071831E-01  1.3732036535E+00  4.6263049783E-03  4.4432196256E-03  5.4912666447E-01
  2.6919732441E+04  1.2288333479E-01  1.3719392344E+00  4.6709109822E-03  4.4851558134E-03  5.5013040377E-01
  2.7016722408E+04  1.2349680088E-01  1.3706805208E+00  4.7157841550E-03  4.5273297728E-03  5.5112983341E-01
  2.7113712375E+04  1.2411111469E-01  1.3694274665E+00  4.7609251277E-03  4.5697419130E-03  5.5212498305E-01
  2.7210702341E+04  1.2472784129E-01  1.3681950012E+00  4.8063345306E-03  4.6123949548E-03  5.5311588203E-01
  2.7307692308E+04  1.2534649614E-01  1.3669782324E+00  4.8520129931E-03  4.6552886483E-03  5.5410255938E-01
  2.7404682274E+04  1.2596600981E-01  1.3657668539E+00  4.8979772344E-03  4.6984366436E-03  5.5508504384E-01
  2.7501672241E+04  1.2658638045E-01  1.3645608230E+00  4.9442803959E-03  4.7418876288E-03  5.5606336384E-01
  2.7598662207E+04  1.2720760621E-01  1.3633600972E+00  4.9908556964E-03  4.7855799513E-03  5.5703754754E-01
  2.7695652174E+04  1.2783170984E-01  1.3621835759E+00  5.0377037680E-03  4.8295171432E-03  5.5800762278E-01
  2.7792642140E+04  1.2845729119E-01  1.3610178853E+00  5.0848252424E-03  4.8736975115E-03  5.5897361715E-01
  2.7889632107E+04  1.2908373866E-01  1.3598572480E+00  5.1322207504E-03  4.9181205247E-03  5.5993555794E-01
  2.7986622074E+04  1.2971105044E-01  1.3587016246E+00  5.1798909219E-03  4.9627865833E-03  5.6089347217E-01
  2.8083612040E+04  1.3033922473E-01  1.3575509761E+00  5.2278363864E-03  5.0076960860E-03  5.6184738658E-01
  2.8180602007E+04  1.3097052165E-01  1.3564259915E+00  5.2760577723E-03  5.0528530843E-03  5.6279732766E-01
  2.8277591973E+04  1.3160306470E-01  1.3553092003E+00  5.3245557075E-03  5.0982550141E-03  5.6374332163E-01
  2.8374581940E+04  1.3223648116E-01  1.3541971479E+00  5.3733308188E-03  5.1439016765E-03  5.6468539444E-01
  2.8471571906E+04  1.3287076924E-01  1.3530897980E+00  5.4223837327E-03  5.1897934646E-03  5.6562357180E-01
  2.8568561873E+04  1.3350592718E-01  1.3519871148E+00  5.4717150747E-03  5.2359307700E-03  5.6655787852E-01
  2.8665551839E+04  1.3414422887E-01  1.3509094988E+00  5.5213254696E-03  5.2823178238E-03  5.6748833963E-01
  2.8762541806E+04  1.3478376740E-01  1.3498395618E+00  5.5712155415E-03  5.3289518695E-03  5.6841498074E-01
  2.8859531773E+04  1.3542418661E-01  1.3487740698E+00  5.6213859136E-03  5.3758327018E-03  5.6933782723E-01
  2.8956521739E+04  1.3606548473E-01  1.3477129896E+00  5.6718372088E-03  5.4229607068E-03  5.7025690416E-01
  2.9053511706E+04  1.3670766004E-01  1.3466562880E+00  5.7225700487E-03  5.4703362690E-03  5.7117223640E-01
  2.9150501672E+04  1.3735277341E-01  1.3456220942E+00  5.7735850547E-03  5.5179634054E-03  5.7208384851E-01
  2.9247491639E+04  1.3799933981E-01  1.3445970897E+00  5.8248828471E-03  5.5658399531E-03  5.7299176485E-01
  2.9344481605E+04  1.3864679411E-01  1.3435762556E+00  5.8764640457E-03  5.6139653086E-03  5.7389600949E-01
  2.9441471572E+04  1.3929513460E-01  1.3425595612E+00  5.9283292696E-03  5.6623398508E-03  5.7479660629E-01
  2.9538461538E+04  1.3994435957E-01  1.3415469761E+00  5.9804791371E-03  5.7109639570E-03  5.7569357887E-01
  2.9635451505E+04  1.4059608728E-01  1.3405524635E+00  6.0329142657E-03  5.7598409804E-03  5.7658695060E-01
  2.9732441472E+04  1.4124971252E-01  1.3395705837E+00  6.0856352724E-03  5.8089702502E-03  5.7747674462E-01
  2.9829431438E+04  1.4190423287E-01  1.3385926173E+00  6.1386427735E-03  5.8583503161E-03  5.7836298387E-01
  2.9926421405E+04  1.4255964665E-01  1.3376185360E+00  6.1919373844E-03  5.9079815502E-03  5.7924569102E-01
  3.0023411371E+04  1.4321595217E-01  1.3366483120E+00  6.2455774111E-03  5.9579168221E-03  5.8012488857E-01
  3.0120401338E+04  1.4387409307E-01  1.3356899307E+00  6.2996891707E-03  6.0082725879E-03  5.8100059875E-01
  3.0217391304E+04  1.4453480733E-01  1.3347494747E+00  6.3540932464E-03  6.0588867860E-03  5.8187284362E-01
  3.0314381271E+04  1.4519642389E-01  1.3338126915E+00  6.4087902693E-03  6.1097566238E-03  5.8274164500E-01
  3.0411371237E+04  1.4585894108E-01  1.3328795551E+00  6.4637808697E-03  6.1608824791E-03  5.8360702450E-01
  3.0508361204E+04  1.4652235725E-01  1.3319500397E+00  6.5190656772E-03  6.2122647277E-03  5.8446900354E-01
  3.0605351171E+04  1.4718670645E-01  1.3310244167E+00  6.5746453208E-03  6.2639038152E-03  5.8532760333E-01
  3.0702341137E+04  1.4785454000E-01  1.3301237850E+00  6.6305204290E-03  6.3158052509E-03  5.8618284488E-01
  3.0799331104E+04  1.4852328301E-01  1.3292266005E+00  6.6866916292E-03  6.3679643131E-03  5.8703474899E-01
  3.0896321070E+04  1.4919293384E-01  1.3283328393E+00  6.7431595486E-03  6.4203813726E-03  5.8788333629E-01
  3.0993311037E+04  1.4986349087E-01  1.3274424774E+00  6.7999248134E-03  6.4730567985E-03  5.8872862719E-01
  3.1090301003E+04  1.5053495247E-01  1.3265554915E+00  6.8569880494E-03  6.5259909582E-03  5.8957064192E-01
  3.1187290970E+04  1.5120882200E-01  1.3256840882E+00  6.9143498815E-03  6.5791873679E-03  5.9040940053E-01
