#[MATERIAL DEFINITION FOR MC-GPU: interaction mean free path and sampling data from PENELOPE 2006]
#[MATERIAL NAME]
# ConnectiveTissue_12                                           
#[NOMINAL DENSITY (g/cm^3)]
#   1.11990000
#[NUMBER OF DATA VALUES]
#   1495
#[MEAN FREE PATHS (cm) (ie, average distance between interactions)]
#[Energy (eV)     | Rayleigh        | Compton         | Photoelectric   | TOTAL (+pair prod) (cm) | Rayleigh: max cumul prob F^2]
  5.0000000000E+03  1.7398091182E+00  7.2542442370E+00  2.2867073154E-02  2.2500413799E-02  3.4288517487E-01
  5.0969899666E+03  1.7783489462E+00  7.1848248322E+00  2.4230961813E-02  2.3825966653E-02  3.4783716989E-01
  5.1939799331E+03  1.8172995993E+00  7.1185911740E+00  2.5648093461E-02  2.5201614781E-02  3.5268906039E-01
  5.2909698997E+03  1.8566524271E+00  7.0553438523E+00  2.7119489176E-02  2.6628186314E-02  3.5744554072E-01
  5.3879598662E+03  1.8963986498E+00  6.9948984941E+00  2.8646169985E-02  2.8106501051E-02  3.6211098633E-01
  5.4849498328E+03  1.9365293852E+00  6.9370844003E+00  3.0230046890E-02  2.9638225749E-02  3.6668973658E-01
  5.5819397993E+03  1.9770356766E+00  6.8817433282E+00  3.1882088504E-02  3.1233706169E-02  3.7118617406E-01
  5.6789297659E+03  2.0179085201E+00  6.8287284025E+00  3.3593516281E-02  3.2884296389E-02  3.7560439851E-01
  5.7759197324E+03  2.0591388934E+00  6.7779031396E+00  3.5365390900E-02  3.4590812910E-02  3.7994824232E-01
  5.8729096990E+03  2.1007177841E+00  6.7291405704E+00  3.7198773345E-02  3.6354062648E-02  3.8422131334E-01
  5.9698996656E+03  2.1426362226E+00  6.6823224457E+00  3.9094724904E-02  3.8174842679E-02  3.8842724521E-01
  6.0668896321E+03  2.1848855508E+00  6.6373381635E+00  4.1061740547E-02  4.0061015573E-02  3.9256957231E-01
  6.1638795987E+03  2.2274578745E+00  6.5940835504E+00  4.3097553847E-02  4.2010158491E-02  3.9665160327E-01
  6.2608695652E+03  2.2703460441E+00  6.5524604700E+00  4.5200051305E-02  4.4020004327E-02  4.0067645103E-01
  6.3578595318E+03  2.3135430646E+00  6.5123772619E+00  4.7370328861E-02  4.6091334741E-02  4.0464706763E-01
  6.4548494983E+03  2.3570527369E+00  6.4737921529E+00  4.9609483050E-02  4.8224927174E-02  4.0856633133E-01
  6.5518394649E+03  2.4008699483E+00  6.4366327144E+00  5.1918917261E-02  5.0421832311E-02  4.1243696203E-01
  6.6488294314E+03  2.4449766040E+00  6.4007778776E+00  5.4299563068E-02  5.2682633047E-02  4.1626153239E-01
  6.7458193980E+03  2.4893658986E+00  6.3661568793E+00  5.6752412676E-02  5.5007964640E-02  4.2004248586E-01
  6.8428093645E+03  2.5340312226E+00  6.3327034858E+00  5.9278566072E-02  5.7398551474E-02  4.2378215317E-01
  6.9397993311E+03  2.5789661884E+00  6.3003556736E+00  6.1879123800E-02  5.9855105480E-02  4.2748271441E-01
  7.0367892977E+03  2.6241656596E+00  6.2690596118E+00  6.4565076971E-02  6.2387561109E-02  4.3114623444E-01
  7.1337792642E+03  2.6696532302E+00  6.2388849179E+00  6.7345112055E-02  6.5003643155E-02  4.3477468956E-01
  7.2307692308E+03  2.7153940194E+00  6.2096523110E+00  7.0204775722E-02  6.7689429072E-02  4.3836996388E-01
  7.3277591973E+03  2.7613835070E+00  6.1813131019E+00  7.3145230547E-02  7.0445620475E-02  4.4193378526E-01
  7.4247491639E+03  2.8076173579E+00  6.1538216650E+00  7.6167640122E-02  7.3272904945E-02  4.4546778393E-01
  7.5217391304E+03  2.8541072146E+00  6.1272009776E+00  7.9273169043E-02  7.6171977159E-02  4.4897353266E-01
  7.6187290970E+03  2.9008528287E+00  6.1014277341E+00  8.2462982894E-02  7.9143505620E-02  4.5245253148E-01
  7.7157190635E+03  2.9478298231E+00  6.0763795626E+00  8.5738248236E-02  8.2188108461E-02  4.5590612934E-01
  7.8127090301E+03  2.9950343995E+00  6.0520208380E+00  8.9100132592E-02  8.5306414536E-02  4.5933560246E-01
  7.9096989967E+03  3.0424851363E+00  6.0284111263E+00  9.2549804432E-02  8.8499076127E-02  4.6274219145E-01
  8.0066889632E+03  3.0901706379E+00  6.0054886062E+00  9.6089729515E-02  9.1767866679E-02  4.6612706298E-01
  8.1036789298E+03  3.1380720966E+00  5.9831576736E+00  9.9737919244E-02  9.5128654145E-02  4.6949125130E-01
  8.2006688963E+03  3.1861931670E+00  5.9614176812E+00  1.0347862179E-01  9.8566533694E-02  4.7283575145E-01
  8.2976588629E+03  3.2345581086E+00  5.9403500986E+00  1.0731304309E-01  1.0208213621E-01  4.7616154841E-01
  8.3946488294E+03  3.2831306491E+00  5.9197914811E+00  1.1124239023E-01  1.0567594884E-01  4.7946956914E-01
  8.4916387960E+03  3.3319096959E+00  5.8997242260E+00  1.1526798475E-01  1.0934861295E-01  4.8276054516E-01
  8.5886287625E+03  3.3809325279E+00  5.8802804509E+00  1.1939259883E-01  1.1310215054E-01  4.8603517989E-01
  8.6856187291E+03  3.4301552461E+00  5.8612753690E+00  1.2361588314E-01  1.1693555867E-01  4.8929416733E-01
  8.7826086957E+03  3.4795805910E+00  5.8427087139E+00  1.2793905283E-01  1.2084933674E-01  4.9253819299E-01
  8.8795986622E+03  3.5292404624E+00  5.8246897777E+00  1.3236332415E-01  1.2484405535E-01  4.9576793478E-01
  8.9765886288E+03  3.5790929307E+00  5.8070497472E+00  1.3688991446E-01  1.2892005671E-01  4.9898403949E-01
  9.0735785953E+03  3.6291522573E+00  5.7898322931E+00  1.4154064311E-01  1.3309604060E-01  5.0218698177E-01
  9.1705685619E+03  3.6794299348E+00  5.7730672007E+00  1.4630402339E-01  1.3736110148E-01  5.0537717248E-01
  9.2675585284E+03  3.7298942085E+00  5.7566306409E+00  1.5117494012E-01  1.4170990394E-01  5.0855502203E-01
  9.3645484950E+03  3.7805790661E+00  5.7406310307E+00  1.5615465341E-01  1.4614297127E-01  5.1172093999E-01
  9.4615384615E+03  3.8314604963E+00  5.7249745253E+00  1.6124442471E-01  1.5066060542E-01  5.1487533528E-01
  9.5585284281E+03  3.8825341197E+00  5.7096393556E+00  1.6644551675E-01  1.5526315411E-01  5.1801861286E-01
  9.6555183946E+03  3.9338284565E+00  5.6947073172E+00  1.7175919360E-01  1.5995107825E-01  5.2115108331E-01
  9.7525083612E+03  3.9853005933E+00  5.6800338734E+00  1.7718672057E-01  1.6472453168E-01  5.2427296718E-01
  9.8494983278E+03  4.0369918737E+00  5.6657391879E+00  1.8272936425E-01  1.6958399625E-01  5.2738448522E-01
  9.9464882943E+03  4.0888693604E+00  5.6517141433E+00  1.8838839249E-01  1.7452961795E-01  5.3048586078E-01
  1.0043478261E+04  4.1409446071E+00  5.6379870453E+00  1.9417799729E-01  1.7957276703E-01  5.3357731970E-01
  1.0140468227E+04  4.1932243536E+00  5.6245661461E+00  2.0010350951E-01  1.8471706230E-01  5.3665908686E-01
  1.0237458194E+04  4.2456834410E+00  5.6113761525E+00  2.0615073490E-01  1.8994931736E-01  5.3973131619E-01
  1.0334448161E+04  4.2983654333E+00  5.5985208118E+00  2.1232098135E-01  1.9526996367E-01  5.4279410051E-01
  1.0431438127E+04  4.3512145051E+00  5.5858509238E+00  2.1861555820E-01  2.0067891666E-01  5.4584753538E-01
  1.0528428094E+04  4.4042956610E+00  5.5735162188E+00  2.2503577623E-01  2.0617668755E-01  5.4889172031E-01
  1.0625418060E+04  4.4575458949E+00  5.5613596089E+00  2.3158294764E-01  2.1176309873E-01  5.5192675858E-01
  1.0722408027E+04  4.5110182434E+00  5.5494946817E+00  2.3825838605E-01  2.1743857039E-01  5.5495274462E-01
  1.0819397993E+04  4.5646702613E+00  5.5378200110E+00  2.4506340647E-01  2.2320297916E-01  5.5796970549E-01
  1.0916387960E+04  4.6185363541E+00  5.5264023020E+00  2.5199932528E-01  2.2905661224E-01  5.6097765026E-01
  1.1013377926E+04  4.6725905505E+00  5.5151803089E+00  2.5906746028E-01  2.3499938708E-01  5.6397659276E-01
  1.1110367893E+04  4.7268531007E+00  5.5041886679E+00  2.6626913058E-01  2.4103147449E-01  5.6696655129E-01
  1.1207357860E+04  4.7813096203E+00  5.4933920093E+00  2.7361862616E-01  2.4716339450E-01  5.6994754662E-01
  1.1304347826E+04  4.8359714937E+00  5.4828065836E+00  2.8113918170E-01  2.5341289549E-01  5.7291956363E-01
  1.1401337793E+04  4.8908302091E+00  5.4724096909E+00  2.8879940155E-01  2.5975306698E-01  5.7588255550E-01
  1.1498327759E+04  4.9458944157E+00  5.4622118236E+00  2.9660065438E-01  2.6618394050E-01  5.7883647934E-01
  1.1595317726E+04  5.0011549060E+00  5.4521907722E+00  3.0454431041E-01  2.7270540044E-01  5.8178129703E-01
  1.1692307692E+04  5.0566245919E+00  5.4423629103E+00  3.1263174144E-01  2.7931746606E-01  5.8471697407E-01
  1.1789297659E+04  5.1122861217E+00  5.4326953007E+00  3.2086432082E-01  2.8601991811E-01  5.8764344852E-01
  1.1886287625E+04  5.1681645614E+00  5.4232209118E+00  3.2924342344E-01  2.9281282178E-01  5.9056063424E-01
  1.1983277592E+04  5.2242260598E+00  5.4138857612E+00  3.3777042570E-01  2.9969578929E-01  5.9346845054E-01
  1.2080267559E+04  5.2805166492E+00  5.4047492572E+00  3.4644670552E-01  3.0666900390E-01  5.9636682171E-01
  1.2177257525E+04  5.3369766897E+00  5.3957269010E+00  3.5527364234E-01  3.1373182992E-01  5.9925567686E-01
  1.2274247492E+04  5.3936829384E+00  5.3869135693E+00  3.6425261707E-01  3.2088465620E-01  6.0213494975E-01
  1.2371237458E+04  5.4505397195E+00  5.3781855712E+00  3.7338501211E-01  3.2812650372E-01  6.0500457862E-01
  1.2468227425E+04  5.5076652880E+00  5.3696815330E+00  3.8267221132E-01  3.3545807172E-01  6.0786450606E-01
  1.2565217391E+04  5.5649399557E+00  5.3612566827E+00  3.9213048661E-01  3.4288950224E-01  6.1071467884E-01
  1.2662207358E+04  5.6224667751E+00  5.3530234736E+00  4.0175437011E-01  3.5041596459E-01  6.1355509518E-01
  1.2759197324E+04  5.6801664589E+00  5.3448915448E+00  4.1153816641E-01  3.5803103001E-01  6.1638581869E-01
  1.2856187291E+04  5.7380929463E+00  5.3369127552E+00  4.2148328337E-01  3.6573481561E-01  6.1920672459E-01
  1.2953177258E+04  5.7962259449E+00  5.3290635804E+00  4.3159113041E-01  3.7352680351E-01  6.2201767996E-01
  1.3050167224E+04  5.8545511679E+00  5.3213252245E+00  4.4186311845E-01  3.8140647926E-01  6.2481855731E-01
  1.3147157191E+04  5.9131261684E+00  5.3137492407E+00  4.5230065991E-01  3.8937397616E-01  6.2760923446E-01
  1.3244147157E+04  5.9718502156E+00  5.3062396094E+00  4.6290516876E-01  3.9742795019E-01  6.3038959441E-01
  1.3341137124E+04  6.0308742329E+00  5.2989260989E+00  4.7367806042E-01  4.0556936869E-01  6.3315952525E-01
  1.3438127090E+04  6.0900496387E+00  5.2916771604E+00  4.8462075182E-01  4.1379638742E-01  6.3591891999E-01
  1.3535117057E+04  6.1494765036E+00  5.2845727632E+00  4.9573466133E-01  4.2210947357E-01  6.3866767094E-01
  1.3632107023E+04  6.2091124681E+00  5.2775760774E+00  5.0702120883E-01  4.3050773771E-01  6.4140564295E-01
  1.3729096990E+04  6.2689385528E+00  5.2706688115E+00  5.1850659661E-01  4.3900822476E-01  6.4413269874E-01
  1.3826086957E+04  6.3290444590E+00  5.2639163517E+00  5.3021118404E-01  4.4762450864E-01  6.4684870695E-01
  1.3923076923E+04  6.3893004402E+00  5.2572196556E+00  5.4209523380E-01  4.5632499922E-01  6.4955354165E-01
  1.4020066890E+04  6.4498505083E+00  5.2506788579E+00  5.5416021501E-01  4.6511061040E-01  6.5224708227E-01
  1.4117056856E+04  6.5105867799E+00  5.2442158992E+00  5.6640759842E-01  4.7397963186E-01  6.5492921348E-01
  1.4214046823E+04  6.5715346016E+00  5.2378452998E+00  5.7883885645E-01  4.8293169938E-01  6.5759982508E-01
  1.4311036789E+04  6.6327609828E+00  5.2316089494E+00  5.9145546310E-01  4.9196693215E-01  6.6025881156E-01
  1.4408026756E+04  6.6941384759E+00  5.2254220723E+00  6.0425889403E-01  5.0108326472E-01  6.6290605798E-01
  1.4505016722E+04  6.7558262192E+00  5.2193816219E+00  6.1725062646E-01  5.1028181527E-01  6.6554143906E-01
  1.4602006689E+04  6.8177047995E+00  5.2134120385E+00  6.3043213925E-01  5.1956056231E-01  6.6816483477E-01
  1.4698996656E+04  6.8797846318E+00  5.2075174450E+00  6.4380491282E-01  5.2891889686E-01  6.7077613053E-01
  1.4795986622E+04  6.9421745070E+00  5.2017587970E+00  6.5737042918E-01  5.3835740481E-01  6.7337521712E-01
  1.4892976589E+04  7.0047169835E+00  5.1960440807E+00  6.7113017188E-01  5.4787347129E-01  6.7596199059E-01
  1.4989966555E+04  7.0675488144E+00  5.1904468487E+00  6.8508562607E-01  5.5746799157E-01  6.7853635213E-01
  1.5086956522E+04  7.1306141796E+00  5.1849347852E+00  6.9927962944E-01  5.6716674510E-01  6.8109820772E-01
  1.5183946488E+04  7.1938327493E+00  5.1794638414E+00  7.1367862289E-01  5.7694447509E-01  6.8364745810E-01
  1.5280936455E+04  7.2574270246E+00  5.1741464354E+00  7.2827943372E-01  5.8680011929E-01  6.8618399780E-01
  1.5377926421E+04  7.3211807924E+00  5.1688705944E+00  7.4308357948E-01  5.9673010234E-01  6.8870772634E-01
  1.5474916388E+04  7.3851548139E+00  5.1636651259E+00  7.5809257938E-01  6.0673434881E-01  6.9121854861E-01
  1.5571906355E+04  7.4494551936E+00  5.1585793787E+00  7.7330795427E-01  6.1681345494E-01  6.9371637469E-01
  1.5668896321E+04  7.5139109487E+00  5.1535301725E+00  7.8873122663E-01  6.2696425833E-01  6.9620111983E-01
  1.5765886288E+04  7.5786541095E+00  5.1485770295E+00  8.0436392057E-01  6.3718767143E-01  6.9867270432E-01
  1.5862876254E+04  7.6436695468E+00  5.1437112543E+00  8.2020756182E-01  6.4748263783E-01  7.0113105172E-01
  1.5959866221E+04  7.7088413237E+00  5.1388796960E+00  8.3626367772E-01  6.5784660415E-01  7.0357607912E-01
  1.6056856187E+04  7.7743611486E+00  5.1341639733E+00  8.5253379721E-01  6.6828139679E-01  7.0600770442E-01
  1.6153846154E+04  7.8401059886E+00  5.1295095842E+00  8.6901945083E-01  6.7878435377E-01  7.0842585074E-01
  1.6250836120E+04  7.9060082541E+00  5.1248872388E+00  8.8572217069E-01  6.8935350541E-01  7.1083044630E-01
  1.6347826087E+04  7.9723109733E+00  5.1203947504E+00  9.0264349050E-01  6.9999154366E-01  7.1322142432E-01
  1.6444816054E+04  8.0387999805E+00  5.1159436826E+00  9.1978494550E-01  7.1069432312E-01  7.1559872294E-01
  1.6541806020E+04  8.1054502441E+00  5.1115236355E+00  9.3714807252E-01  7.2146043642E-01  7.1796228725E-01
  1.6638795987E+04  8.1725380818E+00  5.1072398487E+00  9.5473440995E-01  7.3229322598E-01  7.2031207034E-01
  1.6735785953E+04  8.2397864264E+00  5.1029845192E+00  9.7254549769E-01  7.4318739494E-01  7.2264800668E-01
  1.6832775920E+04  8.3072150094E+00  5.0987646939E+00  9.9058287720E-01  7.5414219910E-01  7.2497003276E-01
  1.6929765886E+04  8.3750763137E+00  5.0946713228E+00  1.0088480915E+00  7.6516074756E-01  7.2727809015E-01
  1.7026755853E+04  8.4430995581E+00  5.0906045938E+00  1.0273426850E+00  7.7623764185E-01  7.2957212546E-01
  1.7123745819E+04  8.5113081414E+00  5.0865724700E+00  1.0460682038E+00  7.8737218568E-01  7.3185209022E-01
  1.7220735786E+04  8.5799587365E+00  5.0826626772E+00  1.0650261954E+00  7.9856769716E-01  7.3411794073E-01
  1.7317725753E+04  8.6487728224E+00  5.0787778232E+00  1.0842182088E+00  8.0981845523E-01  7.3636963801E-01
  1.7414715719E+04  8.7177614436E+00  5.0749214211E+00  1.1036457946E+00  8.2112354004E-01  7.3860714765E-01
  1.7511705686E+04  8.7872172225E+00  5.0711887584E+00  1.1233299230E+00  8.3249770575E-01  7.4083043973E-01
  1.7608695652E+04  8.8568381565E+00  5.0674794350E+00  1.1433969154E+00  8.4400236221E-01  7.4303948869E-01
  1.7705685619E+04  8.9266237253E+00  5.0637931778E+00  1.1637090228E+00  8.5555919311E-01  7.4523427324E-01
  1.7802675585E+04  8.9968791900E+00  5.0602256449E+00  1.1842678689E+00  8.6717268412E-01  7.4741477623E-01
  1.7899665552E+04  9.0673202081E+00  5.0566858498E+00  1.2050750790E+00  8.7883658600E-01  7.4958097501E-01
  1.7996655518E+04  9.1379276160E+00  5.0531676397E+00  1.2261322801E+00  8.9054937763E-01  7.5173283533E-01
  1.8093645485E+04  9.2089638638E+00  5.0497505454E+00  1.2474411011E+00  9.0231494366E-01  7.5387033602E-01
  1.8190635452E+04  9.2802365653E+00  5.0463745993E+00  1.2690031726E+00  9.1412856268E-01  7.5599346046E-01
  1.8287625418E+04  9.3516774740E+00  5.0430188446E+00  1.2908201266E+00  9.2598775405E-01  7.5810219629E-01
  1.8384615385E+04  9.4234859837E+00  5.0397417359E+00  1.3128935973E+00  9.3789533216E-01  7.6019653531E-01
  1.8481605351E+04  9.4956020598E+00  5.0365242675E+00  1.3352252204E+00  9.4984905593E-01  7.6227646155E-01
  1.8578595318E+04  9.5678882225E+00  5.0333256781E+00  1.3578166331E+00  9.6184501322E-01  7.6434190444E-01
  1.8675585284E+04  9.6404591867E+00  5.0301785007E+00  1.3806694747E+00  9.7388440194E-01  7.6639292642E-01
  1.8772575251E+04  9.7134304366E+00  5.0271144255E+00  1.4037853859E+00  9.8596856674E-01  7.6842961783E-01
  1.8869565217E+04  9.7865737143E+00  5.0240679925E+00  1.4271660090E+00  9.9809161590E-01  7.7045206915E-01
  1.8966555184E+04  9.8598959976E+00  5.0210410634E+00  1.4508129884E+00  1.0102525024E+00  7.7246037094E-01
  1.9063545151E+04  9.9337343220E+00  5.0181255643E+00  1.4747279696E+00  1.0224574249E+00  7.7445461388E-01
  1.9160535117E+04  1.0007746677E+01  5.0152265410E+00  1.4989126003E+00  1.0346978830E+00  7.7643486765E-01
  1.9257525084E+04  1.0081932589E+01  5.0123438175E+00  1.5233685295E+00  1.0469726684E+00  7.7840113984E-01
  1.9354515050E+04  1.0156525167E+01  5.0095390334E+00  1.5480974079E+00  1.0592858774E+00  7.8035343038E-01
  1.9451505017E+04  1.0231418657E+01  5.0067829179E+00  1.5731008879E+00  1.0716340824E+00  7.8229174308E-01
  1.9548494983E+04  1.0306487775E+01  5.0040420160E+00  1.5983806235E+00  1.0840132803E+00  7.8421608552E-01
  1.9645484950E+04  1.0381813189E+01  5.0013369842E+00  1.6239382704E+00  1.0964241727E+00  7.8612646893E-01
  1.9742474916E+04  1.0457599959E+01  4.9987195033E+00  1.6497754859E+00  1.1088705128E+00  7.8802290811E-01
  1.9839464883E+04  1.0533564491E+01  4.9961162099E+00  1.6758939287E+00  1.1213445349E+00  7.8990542129E-01
  1.9936454849E+04  1.0609706330E+01  4.9935269581E+00  1.7022952593E+00  1.1338450437E+00  7.9177403004E-01
  2.0033444816E+04  1.0686299342E+01  4.9910193992E+00  1.7289944905E+00  1.1463834484E+00  7.9362875914E-01
  2.0130434783E+04  1.0763171229E+01  4.9885496941E+00  1.7560060019E+00  1.1589599047E+00  7.9546963650E-01
  2.0227424749E+04  1.0840222622E+01  4.9860930730E+00  1.7833064445E+00  1.1715597198E+00  7.9729669259E-01
  2.0324414716E+04  1.0917523427E+01  4.9836663580E+00  1.8108974982E+00  1.1841834927E+00  7.9910994956E-01
  2.0421404682E+04  1.0995312731E+01  4.9813263238E+00  1.8387808448E+00  1.1968362465E+00  8.0090943106E-01
  2.0518394649E+04  1.1073283778E+01  4.9789984681E+00  1.8669581675E+00  1.2095091214E+00  8.0269516625E-01
  2.0615384615E+04  1.1151436131E+01  4.9766826703E+00  1.8954311512E+00  1.2222009464E+00  8.0446718742E-01
  2.0712374582E+04  1.1229990680E+01  4.9744305205E+00  1.9242014823E+00  1.2349164186E+00  8.0622552980E-01
  2.0809364548E+04  1.1308890792E+01  4.9722277190E+00  1.9532708490E+00  1.2476530593E+00  8.0797022958E-01
  2.0906354515E+04  1.1387974487E+01  4.9700361294E+00  1.9826409410E+00  1.2604054810E+00  8.0970133528E-01
  2.1003344482E+04  1.1467241337E+01  4.9678556429E+00  2.0123134496E+00  1.2731725359E+00  8.1141892796E-01
  2.1100334448E+04  1.1547043310E+01  4.9657660105E+00  2.0422900677E+00  1.2859628084E+00  8.1312309186E-01
  2.1197324415E+04  1.1627067755E+01  4.9636951392E+00  2.0725724896E+00  1.2987667528E+00  8.1481391182E-01
  2.1294314381E+04  1.1707277671E+01  4.9616345796E+00  2.1031624115E+00  1.3115822430E+00  8.1649147328E-01
  2.1391304348E+04  1.1787739789E+01  4.9595991075E+00  2.1340615310E+00  1.3244100669E+00  8.1815583104E-01
  2.1488294314E+04  1.1868714349E+01  4.9576456276E+00  2.1652715472E+00  1.3372566465E+00  8.1980700857E-01
  2.1585284281E+04  1.1949876731E+01  4.9557017094E+00  2.1967941608E+00  1.3501117538E+00  8.2144504612E-01
  2.1682274247E+04  1.2031226522E+01  4.9537672634E+00  2.2286310741E+00  1.3629742921E+00  8.2306998663E-01
  2.1779264214E+04  1.2112911460E+01  4.9518740582E+00  2.2607839910E+00  1.3758475433E+00  8.2468187562E-01
  2.1876254181E+04  1.2195035661E+01  4.9500436463E+00  2.2932546167E+00  1.3887336593E+00  8.2628076111E-01
  2.1973244147E+04  1.2277349661E+01  4.9482220039E+00  2.3260446582E+00  1.4016242893E+00  8.2786669348E-01
  2.2070234114E+04  1.2359853058E+01  4.9464090505E+00  2.3591558240E+00  1.4145183707E+00  8.2943972544E-01
  2.2167224080E+04  1.2442750350E+01  4.9446474996E+00  2.3925898238E+00  1.4274211123E+00  8.3099991186E-01
  2.2264214047E+04  1.2526037896E+01  4.9429357033E+00  2.4263483692E+00  1.4403315329E+00  8.3254730971E-01
  2.2361204013E+04  1.2609517266E+01  4.9412319367E+00  2.4604343558E+00  1.4532430105E+00  8.3408197791E-01
  2.2458193980E+04  1.2693188067E+01  4.9395361276E+00  2.4950774248E+00  1.4662332206E+00  8.3560397314E-01
  2.2555183946E+04  1.2777285777E+01  4.9378960684E+00  2.5300556088E+00  1.4792297363E+00  8.3711334773E-01
  2.2652173913E+04  1.2861750437E+01  4.9362986957E+00  2.5653706843E+00  1.4922298184E+00  8.3861015569E-01
  2.2749163880E+04  1.2946408994E+01  4.9347086613E+00  2.6010244297E+00  1.5052270378E+00  8.4009445322E-01
  2.2846153846E+04  1.3031261062E+01  4.9331259004E+00  2.6370186251E+00  1.5182203884E+00  8.4156629858E-01
  2.2943143813E+04  1.3116545743E+01  4.9315975878E+00  2.6733550521E+00  1.5312166917E+00  8.4302575200E-01
  2.3040133779E+04  1.3202201346E+01  4.9301106878E+00  2.7100354943E+00  1.5442131301E+00  8.4447287562E-01
  2.3137123746E+04  1.3288052964E+01  4.9286304795E+00  2.7470617367E+00  1.5572030773E+00  8.4590773334E-01
  2.3234113712E+04  1.3374100223E+01  4.9271569048E+00  2.7844355661E+00  1.5701855694E+00  8.4733039080E-01
  2.3331103679E+04  1.3460556882E+01  4.9257309811E+00  2.8221587709E+00  1.5831668587E+00  8.4874091523E-01
  2.3428093645E+04  1.3547417310E+01  4.9243508266E+00  2.8602331413E+00  1.5961459861E+00  8.5013937327E-01
  2.3525083612E+04  1.3634475920E+01  4.9229767583E+00  2.8986604690E+00  1.6091151676E+00  8.5152582659E-01
  2.3622073579E+04  1.3721732344E+01  4.9216087245E+00  2.9374425474E+00  1.6220734837E+00  8.5290033738E-01
  2.3719063545E+04  1.3809344405E+01  4.9202761929E+00  2.9765811717E+00  1.6350255034E+00  8.5426296963E-01
  2.3816053512E+04  1.3897423590E+01  4.9189992640E+00  3.0160781384E+00  1.6479743452E+00  8.5561378901E-01
  2.3913043478E+04  1.3985703169E+01  4.9177278542E+00  3.0559352461E+00  1.6609099664E+00  8.5695286278E-01
  2.4010033445E+04  1.4074182781E+01  4.9164619174E+00  3.0961542945E+00  1.6738314932E+00  8.5828025968E-01
  2.4107023411E+04  1.4162932048E+01  4.9152141166E+00  3.1367370854E+00  1.6867405523E+00  8.5959604991E-01
  2.4204013378E+04  1.4252243964E+01  4.9140370864E+00  3.1776854219E+00  1.6996468462E+00  8.6090030498E-01
  2.4301003344E+04  1.4341758530E+01  4.9128650435E+00  3.2190011090E+00  1.7125368288E+00  8.6219309766E-01
  2.4397993311E+04  1.4431475395E+01  4.9116979470E+00  3.2606859530E+00  1.7254096729E+00  8.6347449900E-01
  2.4494983278E+04  1.4521394209E+01  4.9105357565E+00  3.3027417619E+00  1.7382645629E+00  8.6474457599E-01
  2.4591973244E+04  1.4611900671E+01  4.9094462492E+00  3.3451703456E+00  1.7511148674E+00  8.6600339646E-01
  2.4688963211E+04  1.4702664281E+01  4.9083704584E+00  3.3879735151E+00  1.7639478609E+00  8.6725102966E-01
  2.4785953177E+04  1.4793632500E+01  4.9072991200E+00  3.4311530833E+00  1.7767608591E+00  8.6848754614E-01
  2.4882943144E+04  1.4884804985E+01  4.9062321980E+00  3.4747108647E+00  1.7895530936E+00  8.6971301772E-01
  2.4979933110E+04  1.4976413946E+01  4.9052094998E+00  3.5186486752E+00  1.8023325550E+00  8.7092751735E-01
  2.5076923077E+04  1.5068439893E+01  4.9042269769E+00  3.5630485997E+00  1.8151187571E+00  8.7213111906E-01
  2.5173913043E+04  1.5160672797E+01  4.9032484424E+00  3.6078550738E+00  1.8278877148E+00  8.7332389791E-01
  2.5270903010E+04  1.5253112324E+01  4.9022738649E+00  3.6530492235E+00  1.8406332664E+00  8.7450593432E-01
  2.5367892977E+04  1.5345799759E+01  4.9013102316E+00  3.6986328929E+00  1.8533563079E+00  8.7567730836E-01
  2.5464882943E+04  1.5439096032E+01  4.9004179238E+00  3.7446079278E+00  1.8660702203E+00  8.7683808617E-01
  2.5561872910E+04  1.5532601605E+01  4.8995291697E+00  3.7909761755E+00  1.8787589493E+00  8.7798833478E-01
  2.5658862876E+04  1.5626316150E+01  4.8986439417E+00  3.8377394850E+00  1.8914218161E+00  8.7912812251E-01
  2.5755852843E+04  1.5720239341E+01  4.8977622126E+00  3.8848997068E+00  1.9040581537E+00  8.8025751889E-01
  2.5852842809E+04  1.5814629925E+01  4.8969268693E+00  3.9324586933E+00  1.9166776870E+00  8.8137659456E-01
  2.5949832776E+04  1.5909413706E+01  4.8961249361E+00  3.9804182982E+00  1.9292769559E+00  8.8248542121E-01
  2.6046822742E+04  1.6004408784E+01  4.8953261253E+00  4.0287803769E+00  1.9418480910E+00  8.8358407151E-01
  2.6143812709E+04  1.6099614840E+01  4.8945304130E+00  4.0775467866E+00  1.9543904723E+00  8.8467261902E-01
  2.6240802676E+04  1.6195032484E+01  4.8937379276E+00  4.1267193857E+00  1.9669035298E+00  8.8575113815E-01
  2.6337792642E+04  1.6291099653E+01  4.8930200031E+00  4.1763000344E+00  1.9794048157E+00  8.8681970406E-01
  2.6434782609E+04  1.6387380418E+01  4.8923048223E+00  4.2262905947E+00  1.9918758778E+00  8.8787839260E-01
  2.6531772575E+04  1.6483874468E+01  4.8915923647E+00  4.2766929298E+00  2.0043161424E+00  8.8892728028E-01
  2.6628762542E+04  1.6580581493E+01  4.8908826100E+00  4.3275089046E+00  2.0167250472E+00  8.8996644417E-01
  2.6725752508E+04  1.6677648956E+01  4.8901993485E+00  4.3787403857E+00  2.0291083286E+00  8.9099596186E-01
  2.6822742475E+04  1.6775220213E+01  4.8895651469E+00  4.4303892411E+00  2.0414716694E+00  8.9201591138E-01
  2.6919732441E+04  1.6873007034E+01  4.8889333162E+00  4.4824573405E+00  2.0538023458E+00  8.9302637120E-01
  2.7016722408E+04  1.6971009117E+01  4.8883038390E+00  4.5349465550E+00  2.0660998408E+00  8.9402741838E-01
  2.7113712375E+04  1.7069226159E+01  4.8876766983E+00  4.5878587575E+00  2.0783636485E+00  8.9501912194E-01
  2.7210702341E+04  1.7167916375E+01  4.8870928766E+00  4.6411958221E+00  2.0906046105E+00  8.9600154934E-01
  2.7307692308E+04  1.7267000396E+01  4.8865391708E+00  4.6949596247E+00  2.1028188997E+00  8.9697476887E-01
  2.7404682274E+04  1.7366301936E+01  4.8859874906E+00  4.7491582729E+00  2.1149995924E+00  8.9793884967E-01
  2.7501672241E+04  1.7465820702E+01  4.8854378214E+00  4.8038141014E+00  2.1271501953E+00  8.9889386159E-01
  2.7598662207E+04  1.7565556400E+01  4.8848901489E+00  4.8589029772E+00  2.1392650359E+00  8.9983987514E-01
  2.7695652174E+04  1.7665841544E+01  4.8843964476E+00  4.9144267887E+00  2.1513586943E+00  9.0077696147E-01
  2.7792642140E+04  1.7766446594E+01  4.8839202002E+00  4.9703874261E+00  2.1634205214E+00  9.0170519227E-01
  2.7889632107E+04  1.7867271107E+01  4.8834456582E+00  5.0267867810E+00  2.1754455924E+00  9.0262463971E-01
  2.7986622074E+04  1.7968314796E+01  4.8829728094E+00  5.0836267465E+00  2.1874334964E+00  9.0353537642E-01
  2.8083612040E+04  1.8069577375E+01  4.8825016420E+00  5.1409092175E+00  2.1993838333E+00  9.0443747540E-01
  2.8180602007E+04  1.8171428953E+01  4.8820891747E+00  5.1986360902E+00  2.2113133988E+00  9.0533100999E-01
  2.8277591973E+04  1.8273562890E+01  4.8816875232E+00  5.2568092623E+00  2.2232077265E+00  9.0621605383E-01
  2.8374581940E+04  1.8375918218E+01  4.8812872799E+00  5.3154306332E+00  2.2350636397E+00  9.0709268076E-01
  2.8471571906E+04  1.8478494657E+01  4.8808884350E+00  5.3745021036E+00  2.2468807782E+00  9.0796096484E-01
  2.8568561873E+04  1.8581291930E+01  4.8804909789E+00  5.4340255759E+00  2.2586587916E+00  9.0882098028E-01
  2.8665551839E+04  1.8684680873E+01  4.8801512629E+00  5.4940029540E+00  2.2704150181E+00  9.0967279924E-01
  2.8762541806E+04  1.8788351144E+01  4.8798215068E+00  5.5544361431E+00  2.2821344757E+00  9.1051648746E-01
  2.8859531773E+04  1.8892244716E+01  4.8794928830E+00  5.6153270502E+00  2.2938141000E+00  9.1135210998E-01
  2.8956521739E+04  1.8996361319E+01  4.8791653838E+00  5.6766775835E+00  2.3054535783E+00  9.1217973234E-01
  2.9053511706E+04  1.9100700682E+01  4.8788390016E+00  5.7384896529E+00  2.3170526076E+00  9.1299942059E-01
  2.9150501672E+04  1.9205597449E+01  4.8785639312E+00  5.8007651697E+00  2.3286272557E+00  9.1381124117E-01
  2.9247491639E+04  1.9310811087E+01  4.8783035202E+00  5.8635060467E+00  2.3401656066E+00  9.1461526089E-01
  2.9344481605E+04  1.9416249921E+01  4.8780439852E+00  5.9267141983E+00  2.3516629311E+00  9.1541154690E-01
  2.9441471572E+04  1.9521913686E+01  4.8777853203E+00  5.9903915401E+00  2.3631189617E+00  9.1620016661E-01
  2.9538461538E+04  1.9627802120E+01  4.8775275198E+00  6.0545399894E+00  2.3745334401E+00  9.1698118763E-01
  2.9635451505E+04  1.9734176793E+01  4.8773093421E+00  6.1191614650E+00  2.3859192206E+00  9.1775467780E-01
  2.9732441472E+04  1.9840940418E+01  4.8771158649E+00  6.1842578869E+00  2.3972712951E+00  9.1852070507E-01
  2.9829431438E+04  1.9947931115E+01  4.8769230254E+00  6.2498311769E+00  2.4085813625E+00  9.1927933750E-01
  2.9926421405E+04  2.0055148626E+01  4.8767308196E+00  6.3158832580E+00  2.4198491978E+00  9.2003064321E-01
  3.0023411371E+04  2.0162592696E+01  4.8765392432E+00  6.3825059432E+00  2.4310876258E+00  9.2077469036E-01
  3.0120401338E+04  2.0270414895E+01  4.8763705159E+00  6.4498978730E+00  2.4423319675E+00  9.2151154709E-01
  3.0217391304E+04  2.0378734197E+01  4.8762416367E+00  6.5177810124E+00  2.4535470899E+00  9.2224127950E-01
  3.0314381271E+04  2.0487282424E+01  4.8761131740E+00  6.5861573450E+00  2.4647191005E+00  9.2296394859E-01
  3.0411371237E+04  2.0596059324E+01  4.8759851249E+00  6.6550288557E+00  2.4758478091E+00  9.2367961485E-01
  3.0508361204E+04  2.0705064647E+01  4.8758574869E+00  6.7243975312E+00  2.4869330338E+00  9.2438833907E-01
  3.0605351171E+04  2.0814303819E+01  4.8757310798E+00  6.7942653596E+00  2.4979748980E+00  9.2509018231E-01
  3.0702341137E+04  2.0924182766E+01  4.8756644555E+00  6.8646343308E+00  2.5089945868E+00  9.2578520583E-01
  3.0799331104E+04  2.1034292456E+01  4.8755980423E+00  6.9355064360E+00  2.5199705451E+00  9.2647347106E-01
  3.0896321070E+04  2.1144632643E+01  4.8755318388E+00  7.0068836682E+00  2.5309026203E+00  9.2715503956E-01
  3.0993311037E+04  2.1255203085E+01  4.8754658436E+00  7.0787680219E+00  2.5417906674E+00  9.2782997300E-01
  3.1090301003E+04  2.1366003539E+01  4.8754000556E+00  7.1511614932E+00  2.5526345489E+00  9.2849833310E-01
  3.1187290970E+04  2.1477270513E+01  4.8753683152E+00  7.2240660797E+00  2.5634468630E+00  9.2916018161E-01
