#[MATERIAL DEFINITION FOR MC-GPU: interaction mean free path and sampling data from PENELOPE 2006]
#[MATERIAL NAME]
# CsI                                                           
#[NOMINAL DENSITY (g/cm^3)]
#   4.51000000
#[NUMBER OF DATA VALUES]
#   1495
#[MEAN FREE PATHS (cm) (ie, average distance between interactions)]
#[Energy (eV)     | Rayleigh        | Compton         | Photoelectric   | TOTAL (+pair prod) (cm) | Rayleigh: max cumul prob F^2]
  5.0000000000E+03  4.4892676864E-02  5.8764356904E+00  4.2172133724E-04  4.1776685877E-04  1.3445328170E-01
  5.0969899666E+03  4.5446859108E-02  5.7912588384E+00  3.0911335090E-04  3.0700879953E-04  1.3793394853E-01
  5.1939799331E+03  4.6004266244E-02  5.7092376528E+00  2.9933585946E-04  2.9738527142E-04  1.4141358488E-01
  5.2909698997E+03  4.6564959345E-02  5.6302048941E+00  3.1376537824E-04  3.1164805434E-04  1.4489125071E-01
  5.3879598662E+03  4.7128992303E-02  5.5540046989E+00  2.8475665085E-04  2.8303204037E-04  1.4836605984E-01
  5.4849498328E+03  4.7696412040E-02  5.4804916085E+00  2.9766138870E-04  2.9579931338E-04  1.5183719461E-01
  5.5819397993E+03  4.8267258685E-02  5.4095296961E+00  3.1117409283E-04  3.0916316535E-04  1.5530387359E-01
  5.6789297659E+03  4.8841565739E-02  5.3409917802E+00  3.2530790235E-04  3.2313598255E-04  1.5876526647E-01
  5.7759197324E+03  4.9419360209E-02  5.2747587153E+00  3.1560810357E-04  3.1358667406E-04  1.6222058550E-01
  5.8729096990E+03  5.0000662729E-02  5.2107187511E+00  3.2915682253E-04  3.2698361800E-04  1.6566909771E-01
  5.9698996656E+03  5.0585487650E-02  5.1487669535E+00  3.4305086330E-04  3.4071754976E-04  1.6911012227E-01
  6.0668896321E+03  5.1173842347E-02  5.0888047613E+00  3.5742306172E-04  3.5491920447E-04  1.7254302802E-01
  6.1638795987E+03  5.1765725960E-02  5.0307396379E+00  3.7221536271E-04  3.6953095293E-04  1.7596721116E-01
  6.2608695652E+03  5.2361129686E-02  4.9744845880E+00  3.8737443188E-04  3.8449990977E-04  1.7938202966E-01
  6.3578595318E+03  5.2960038869E-02  4.9199575393E+00  4.0290346660E-04  3.9982894993E-04  1.8278687692E-01
  6.4548494983E+03  5.3562866910E-02  4.8670989785E+00  4.1880564219E-04  4.1552094775E-04  1.8618118885E-01
  6.5518394649E+03  5.4169721611E-02  4.8158404371E+00  4.3518954458E-04  4.3168247770E-04  1.8956444117E-01
  6.6488294314E+03  5.4780143836E-02  4.7660943685E+00  4.5199901931E-04  4.4825786661E-04  1.9293614744E-01
  6.7458193980E+03  5.5394100097E-02  4.7177950075E+00  4.6920016756E-04  4.6521344076E-04  1.9629585884E-01
  6.8428093645E+03  5.6011551425E-02  4.6708799964E+00  4.8679628699E-04  4.8255213600E-04  1.9964312545E-01
  6.9397993311E+03  5.6632453352E-02  4.6252901541E+00  5.0479065534E-04  5.0027686277E-04  2.0297749442E-01
  7.0367892977E+03  5.7256808929E-02  4.5809712968E+00  5.2327441377E-04  5.1847678973E-04  2.0629854427E-01
  7.1337792642E+03  5.7886170919E-02  4.5379307660E+00  5.4231602487E-04  5.3721880140E-04  2.0960588419E-01
  7.2307692308E+03  5.8518955168E-02  4.4960584709E+00  5.6177931629E-04  5.5636868428E-04  2.1289915249E-01
  7.3277591973E+03  5.9155089533E-02  4.4553056205E+00  5.8166778196E-04  5.7592951688E-04  2.1617801521E-01
  7.4247491639E+03  5.9794497639E-02  4.4156257785E+00  6.0198489764E-04  5.9590435277E-04  2.1944216480E-01
  7.5217391304E+03  6.0438072636E-02  4.3770095823E+00  6.2273412121E-04  6.1629632273E-04  2.2269131876E-01
  7.6187290970E+03  6.1086111108E-02  4.3394271721E+00  6.4391889305E-04  6.3710848690E-04  2.2592521843E-01
  7.7157190635E+03  6.1737327010E-02  4.3027948314E+00  6.6554263632E-04  6.5834370865E-04  2.2914362743E-01
  7.8127090301E+03  6.2391629635E-02  4.2670741275E+00  6.8760875725E-04  6.8000494712E-04  2.3234630349E-01
  7.9096989967E+03  6.3050505885E-02  4.2322820559E+00  7.1012064548E-04  7.0209533502E-04  2.3553301233E-01
  8.0066889632E+03  6.3713517149E-02  4.1983703320E+00  7.3309116479E-04  7.2462703752E-04  2.3870354818E-01
  8.1036789298E+03  6.4379479349E-02  4.1652680588E+00  7.5664610230E-04  7.4772236184E-04  2.4185772411E-01
  8.2006688963E+03  6.5048791092E-02  4.1329594262E+00  7.8066408190E-04  7.7126232049E-04  2.4499537112E-01
  8.2976588629E+03  6.5723474255E-02  4.1014813005E+00  8.0514856791E-04  7.9525020421E-04  2.4811633721E-01
  8.3946488294E+03  6.6400923007E-02  4.0707220148E+00  8.3010300940E-04  8.1968862127E-04  2.5122048653E-01
  8.4916387960E+03  6.7081132068E-02  4.0406567135E+00  8.5553084039E-04  8.4458051291E-04  2.5430769851E-01
  8.5886287625E+03  6.7767242338E-02  4.0113582923E+00  8.8143548012E-04  8.6992932297E-04  2.5737786712E-01
  8.6856187291E+03  6.8455913306E-02  3.9826993432E+00  9.0782033327E-04  8.9573743753E-04  2.6043089717E-01
  8.7826086957E+03  6.9147441148E-02  3.9546674936E+00  9.3468879018E-04  9.2200778923E-04  2.6346669928E-01
  8.8795986622E+03  6.9844689372E-02  3.9273264845E+00  9.6204422709E-04  9.4874377728E-04  2.6648519984E-01
  8.9765886288E+03  7.0544277474E-02  3.9005552147E+00  9.8989000633E-04  9.7594765529E-04  2.6948633708E-01
  9.0735785953E+03  7.1247522239E-02  3.8743731089E+00  1.0184819790E-03  1.0038678143E-03  2.7247006028E-01
  9.1705685619E+03  7.1955573716E-02  3.8487934705E+00  1.0476647736E-03  1.0323528240E-03  2.7543632915E-01
  9.2675585284E+03  7.2665724229E-02  3.8237215857E+00  1.0773634633E-03  1.0613288509E-03  2.7838511329E-01
  9.3645484950E+03  7.3381038250E-02  3.7992251957E+00  1.1075816249E-03  1.0907995695E-03  2.8131639164E-01
  9.4615384615E+03  7.4099495475E-02  3.7752314472E+00  1.1383228226E-03  1.1207675567E-03  2.8423015165E-01
  9.5585284281E+03  7.4820777064E-02  3.7517164663E+00  1.1695906076E-03  1.1512357150E-03  2.8712638490E-01
  9.6555183946E+03  7.5547490752E-02  3.7287333002E+00  1.2013885189E-03  1.1822076428E-03  2.9000509573E-01
  9.7525083612E+03  7.6275918570E-02  3.7061701552E+00  1.2337200829E-03  1.2136853894E-03  2.9286629773E-01
  9.8494983278E+03  7.7009796346E-02  3.6841088258E+00  1.2665888141E-03  1.2456728327E-03  2.9571001126E-01
  9.9464882943E+03  7.7746289233E-02  3.6624634768E+00  1.2999982149E-03  1.2781721672E-03  2.9853626304E-01
  1.0043478261E+04  7.8486486427E-02  3.6412486505E+00  1.3340738435E-03  1.3113045152E-03  3.0134508581E-01
  1.0140468227E+04  7.9230967940E-02  3.6204656401E+00  1.3688556662E-03  1.3451079679E-03  3.0413651793E-01
  1.0237458194E+04  7.9977606385E-02  3.6000513454E+00  1.4042002352E-03  1.3794427314E-03  3.0691060308E-01
  1.0334448161E+04  8.0729974838E-02  3.5800790978E+00  1.4401111944E-03  1.4143128898E-03  3.0966738993E-01
  1.0431438127E+04  8.1483488302E-02  3.5604301410E+00  1.4765921764E-03  1.4497200357E-03  3.1240693181E-01
  1.0528428094E+04  8.2243301133E-02  3.5412131834E+00  1.5136468030E-03  1.4856687822E-03  3.1512928648E-01
  1.0625418060E+04  8.3004430974E-02  3.5223038043E+00  1.5512786852E-03  1.5221604815E-03  3.1783451578E-01
  1.0722408027E+04  8.3770927905E-02  3.5037836768E+00  1.5894914232E-03  1.5591994358E-03  3.2052268545E-01
  1.0819397993E+04  8.4539552127E-02  3.4855710390E+00  1.6282886067E-03  1.5967874655E-03  3.2319386480E-01
  1.0916387960E+04  8.5312827338E-02  3.4677122493E+00  1.6676738149E-03  1.6349283826E-03  3.2584812649E-01
  1.1013377926E+04  8.6088819200E-02  3.4501564831E+00  1.7076506168E-03  1.6736243852E-03  3.2848554759E-01
  1.1110367893E+04  8.6868963043E-02  3.4329259574E+00  1.7482225710E-03  1.7128788990E-03  3.3110621207E-01
  1.1207357860E+04  8.7652191220E-02  3.4159899089E+00  1.7894874806E-03  1.7527848118E-03  3.3371020699E-01
  1.1304347826E+04  8.8439290367E-02  3.3993567874E+00  1.8316064553E-03  1.7934962124E-03  3.3629762155E-01
  1.1401337793E+04  8.9229619107E-02  3.3830057925E+00  1.8743441995E-03  1.8347863897E-03  3.3886854690E-01
  1.1498327759E+04  9.0023756683E-02  3.3669412462E+00  1.9177044235E-03  1.8766585738E-03  3.4142307602E-01
  1.1595317726E+04  9.0821045952E-02  3.3511429276E+00  1.9616908280E-03  1.9191154480E-03  3.4396130353E-01
  1.1692307692E+04  9.1622301656E-02  3.3356199925E+00  2.0063071046E-03  1.9621603334E-03  3.4648332561E-01
  1.1789297659E+04  9.2426407288E-02  3.3203440750E+00  2.0515569352E-03  2.0057956536E-03  3.4898923979E-01
  1.1886287625E+04  9.3234857509E-02  3.3053375026E+00  2.0974439930E-03  2.0500250425E-03  3.5147914489E-01
  1.1983277592E+04  9.4045631346E-02  3.2905556472E+00  2.1439719417E-03  2.0948504253E-03  3.5395314087E-01
  1.2080267559E+04  9.4861349262E-02  3.2760417690E+00  2.1911444364E-03  2.1402760066E-03  3.5641132871E-01
  1.2177257525E+04  9.5678639299E-02  3.2617274223E+00  2.2389651231E-03  2.1863029372E-03  3.5885381035E-01
  1.2274247492E+04  9.6501694971E-02  3.2476840269E+00  2.2874376390E-03  2.2329362875E-03  3.6128068988E-01
  1.2371237458E+04  9.7325345493E-02  3.2338122837E+00  2.3365656129E-03  2.2801761199E-03  3.6369207578E-01
  1.2468227425E+04  9.8155805835E-02  3.2202185141E+00  2.3863526646E-03  2.3280287057E-03  3.6608807734E-01
  1.2565217391E+04  9.8986834883E-02  3.2067865627E+00  2.4370950872E-03  2.3767717258E-03  3.6846880408E-01
  1.2662207358E+04  9.9823582351E-02  3.1936025133E+00  2.4886588743E-03  2.4262796266E-03  3.7083436570E-01
  1.2759197324E+04  1.0066212436E-01  3.1805929547E+00  2.5409076573E-03  2.4764196536E-03  3.7318487200E-01
  1.2856187291E+04  1.0150491109E-01  3.1677963357E+00  2.5938452250E-03  2.5271962224E-03  3.7552043285E-01
  1.2953177258E+04  1.0235101438E-01  3.1551919258E+00  2.6474753584E-03  2.5786116999E-03  3.7784115807E-01
  1.3050167224E+04  1.0319966674E-01  3.1427629597E+00  2.7018018302E-03  2.6306684890E-03  3.8014715745E-01
  1.3147157191E+04  1.0405337618E-01  3.1305474621E+00  2.7568284057E-03  2.6833711487E-03  3.8243854067E-01
  1.3244147157E+04  1.0490779508E-01  3.1184687092E+00  2.8125588421E-03  2.7367196303E-03  3.8471541724E-01
  1.3341137124E+04  1.0576907615E-01  3.1066255210E+00  2.8689968891E-03  2.7907210423E-03  3.8697789646E-01
  1.3438127090E+04  1.0663118973E-01  3.0949138669E+00  2.9261462888E-03  2.8453740362E-03  3.8922608447E-01
  1.3535117057E+04  1.0749797616E-01  3.0833938886E+00  2.9840107758E-03  2.9006841827E-03  3.9146009118E-01
  1.3632107023E+04  1.0836782275E-01  3.0720352119E+00  3.0425940771E-03  2.9566531533E-03  3.9368003083E-01
  1.3729096990E+04  1.0923993379E-01  3.0608220540E+00  3.1018999123E-03  3.0132831323E-03  3.9588601700E-01
  1.3826086957E+04  1.1011754897E-01  3.0498029948E+00  3.1619319939E-03  3.0705794381E-03  3.9807816263E-01
  1.3923076923E+04  1.1099600587E-01  3.0389002190E+00  3.2226940269E-03  3.1285411909E-03  4.0025657996E-01
  1.4020066890E+04  1.1188021922E-01  3.0281890035E+00  3.2841897092E-03  3.1871751094E-03  4.0242138055E-01
  1.4117056856E+04  1.1276652172E-01  3.0176078566E+00  3.3464227315E-03  3.2464809796E-03  4.0457267523E-01
  1.4214046823E+04  1.1365568059E-01  3.0071664609E+00  3.4093967775E-03  3.3064621483E-03  4.0671057411E-01
  1.4311036789E+04  1.1454985822E-01  2.9968952429E+00  3.4731155239E-03  3.3671232364E-03  4.0883518655E-01
  1.4408026756E+04  1.1544495982E-01  2.9867281290E+00  3.5375826405E-03  3.4284633673E-03  4.1094662118E-01
  1.4505016722E+04  1.1634585638E-01  2.9767375435E+00  3.6028017900E-03  3.4904896032E-03  4.1304498584E-01
  1.4602006689E+04  1.1724890270E-01  2.9668645808E+00  3.6687766284E-03  3.5532013551E-03  4.1513038763E-01
  1.4698996656E+04  1.1815435396E-01  2.9571111407E+00  3.7355108050E-03  3.6166014862E-03  4.1720293284E-01
  1.4795986622E+04  1.1906536879E-01  2.9475220360E+00  3.8030079624E-03  3.6806957069E-03  4.1926272700E-01
  1.4892976589E+04  1.1997738671E-01  2.9380263754E+00  3.8712717363E-03  3.7454822546E-03  4.2130987484E-01
  1.4989966555E+04  1.2089419048E-01  2.9286785522E+00  3.9403057561E-03  3.8109674924E-03  4.2334448027E-01
  1.5086956522E+04  1.2181423961E-01  2.9194528882E+00  4.0107019590E-03  3.8777024881E-03  4.2536664641E-01
  1.5183946488E+04  1.2273532755E-01  2.9103151271E+00  4.0819614839E-03  3.9452169957E-03  4.2737647559E-01
  1.5280936455E+04  1.2366329743E-01  2.9013488483E+00  4.1540212481E-03  4.0134573740E-03  4.2937406931E-01
  1.5377926421E+04  1.2459247680E-01  2.8924685492E+00  4.2268850734E-03  4.0824203566E-03  4.3135952826E-01
  1.5474916388E+04  1.2552438596E-01  2.8836950056E+00  4.3005567754E-03  4.1521102677E-03  4.3333295327E-01
  1.5571906355E+04  1.2646167419E-01  2.8750642610E+00  4.3750401638E-03  4.2225328409E-03  4.3529444821E-01
  1.5668896321E+04  1.2740007614E-01  2.8665126982E+00  4.4503390420E-03  4.2936859539E-03  4.3724411553E-01
  1.5765886288E+04  1.2834274100E-01  2.8580842506E+00  4.5264572077E-03  4.3655759216E-03  4.3918205654E-01
  1.5862876254E+04  1.2928930632E-01  2.8497712972E+00  4.6033984527E-03  4.4382050659E-03  4.4110837154E-01
  1.5959866221E+04  1.3023701907E-01  2.8415329752E+00  4.6811665629E-03  4.5115727121E-03  4.4302315975E-01
  1.6056856187E+04  1.3119023741E-01  2.8334298550E+00  4.7597653181E-03  4.5856868724E-03  4.4492651941E-01
  1.6153846154E+04  1.3214616465E-01  2.8254199246E+00  4.8391984927E-03  4.6605467739E-03  4.4681854774E-01
  1.6250836120E+04  1.3310327243E-01  2.8174803841E+00  4.9194698552E-03  4.7361530295E-03  4.4869934093E-01
  1.6347826087E+04  1.3406683573E-01  2.8096839790E+00  5.0005831684E-03  4.8125151391E-03  4.5056899421E-01
  1.6444816054E+04  1.3503220581E-01  2.8019632794E+00  5.0825421895E-03  4.8896296596E-03  4.5242760181E-01
  1.6541806020E+04  1.3599884341E-01  2.7943097711E+00  5.1653506701E-03  4.9674983533E-03  4.5427525699E-01
  1.6638795987E+04  1.3697248275E-01  2.7868017705E+00  5.2490123560E-03  5.0461317146E-03  4.5611205205E-01
  1.6735785953E+04  1.3794737277E-01  2.7793574060E+00  5.3335309879E-03  5.1255243953E-03  4.5793807833E-01
  1.6832775920E+04  1.3892391080E-01  2.7719813344E+00  5.4189103006E-03  5.2056793974E-03  4.5975342624E-01
  1.6929765886E+04  1.3990711208E-01  2.7647411234E+00  5.5051540238E-03  5.2866065723E-03  4.6155818525E-01
  1.7026755853E+04  1.4089159546E-01  2.7575610222E+00  5.5922658814E-03  5.3683006377E-03  4.6335244389E-01
  1.7123745819E+04  1.4187781114E-01  2.7504464173E+00  5.6802495924E-03  5.4507646690E-03  4.6513628981E-01
  1.7220735786E+04  1.4287064466E-01  2.7434624579E+00  5.7691088702E-03  5.5340086725E-03  4.6690980972E-01
  1.7317725753E+04  1.4386479120E-01  2.7365353078E+00  5.8588474228E-03  5.6180270334E-03  4.6867309048E-01
  1.7414715719E+04  1.4486045675E-01  2.7296670505E+00  5.9494689532E-03  5.7028224327E-03  4.7042621988E-01
  1.7511705686E+04  1.4586298947E-01  2.7229285251E+00  6.0410520585E-03  5.7884747353E-03  4.7216928445E-01
  1.7608695652E+04  1.4686686564E-01  2.7162437161E+00  6.1340799517E-03  5.8754173083E-03  4.7390236972E-01
  1.7705685619E+04  1.4787207964E-01  2.7096119029E+00  6.2280175793E-03  5.9631574196E-03  4.7562556026E-01
  1.7802675585E+04  1.4888404606E-01  2.7031042502E+00  6.3228687810E-03  6.0517067817E-03  4.7733893966E-01
  1.7899665552E+04  1.4989771685E-01  2.6966518419E+00  6.4186373917E-03  6.1410594229E-03  4.7904259058E-01
  1.7996655518E+04  1.5091275545E-01  2.6902495795E+00  6.5153272414E-03  6.2312171578E-03  4.8073659471E-01
  1.8093645485E+04  1.5193370719E-01  2.6839565919E+00  6.6129421553E-03  6.3221905573E-03  4.8242103284E-01
  1.8190635452E+04  1.5295723545E-01  2.6777272533E+00  6.7114859536E-03  6.4139762509E-03  4.8409598482E-01
  1.8287625418E+04  1.5398216108E-01  2.6715453835E+00  6.8109624519E-03  6.5065744913E-03  4.8576152963E-01
  1.8384615385E+04  1.5501185694E-01  2.6654543592E+00  6.9113754611E-03  6.5999939946E-03  4.8741774536E-01
  1.8481605351E+04  1.5604530235E-01  2.6594393103E+00  7.0127287873E-03  6.6942354149E-03  4.8906470920E-01
  1.8578595318E+04  1.5708017425E-01  2.6534692130E+00  7.1150262319E-03  6.7892967341E-03  4.9070249752E-01
  1.8675585284E+04  1.5811836894E-01  2.6475680490E+00  7.2182715917E-03  6.8851840090E-03  4.9233118581E-01
  1.8772575251E+04  1.5916178802E-01  2.6417590204E+00  7.3224686588E-03  6.9819035230E-03  4.9395084873E-01
  1.8869565217E+04  1.6020666235E-01  2.6359925747E+00  7.4276212209E-03  7.0794501876E-03  4.9556156013E-01
  1.8966555184E+04  1.6125310674E-01  2.6302697232E+00  7.5337330608E-03  7.1778265015E-03  4.9716339159E-01
  1.9063545151E+04  1.6230655297E-01  2.6246589195E+00  7.6408079572E-03  7.2770461701E-03  4.9875641558E-01
  1.9160535117E+04  1.6336148280E-01  2.6190884676E+00  7.7488496839E-03  7.3771001425E-03  5.0034070573E-01
  1.9257525084E+04  1.6441789079E-01  2.6135578751E+00  7.8578620104E-03  7.4779906315E-03  5.0191633481E-01
  1.9354515050E+04  1.6547944813E-01  2.6081129626E+00  7.9678487019E-03  7.5797279398E-03  5.0348337469E-01
  1.9451505017E+04  1.6654448354E-01  2.6027312773E+00  8.0788135188E-03  7.6823108796E-03  5.0504189642E-01
  1.9548494983E+04  1.6761102511E-01  2.5973873819E+00  8.1907602175E-03  7.7857373555E-03  5.0659197020E-01
  1.9645484950E+04  1.6868031528E-01  2.5920964241E+00  8.3036925498E-03  7.8900124049E-03  5.0813366542E-01
  1.9742474916E+04  1.6975550341E-01  2.5868966790E+00  8.4176142632E-03  7.9951456705E-03  5.0966705065E-01
  1.9839464883E+04  1.7083222534E-01  2.5817327707E+00  8.5325291010E-03  8.1011293955E-03  5.1119219367E-01
  1.9936454849E+04  1.7191047573E-01  2.5766042787E+00  8.6484408020E-03  8.2079657076E-03  5.1270916148E-01
  2.0033444816E+04  1.7299437321E-01  2.5715614967E+00  8.7656521026E-03  8.3159358881E-03  5.1421802031E-01
  2.0130434783E+04  1.7408132025E-01  2.5665711611E+00  8.8844487311E-03  8.4252890126E-03  5.1571883561E-01
  2.0227424749E+04  1.7516982307E-01  2.5616144261E+00  9.0042727277E-03  8.5355176189E-03  5.1721167212E-01
  2.0324414716E+04  1.7626091742E-01  2.5567035237E+00  9.1251279869E-03  8.6466265447E-03  5.1869659383E-01
  2.0421404682E+04  1.7735813643E-01  2.5518803102E+00  9.2470183996E-03  8.7586272040E-03  5.2017366399E-01
  2.0518394649E+04  1.7845693823E-01  2.5470889846E+00  9.3699478524E-03  8.8715103772E-03  5.2164294515E-01
  2.0615384615E+04  1.7955731760E-01  2.5423291866E+00  9.4939202280E-03  8.9852782173E-03  5.2310449918E-01
  2.0712374582E+04  1.8066249670E-01  2.5376387432E+00  9.6189394054E-03  9.0999415414E-03  5.2455838723E-01
  2.0809364548E+04  1.8177164309E-01  2.5330066891E+00  9.7450092596E-03  9.2155005706E-03  5.2600466977E-01
  2.0906354515E+04  1.8288239382E-01  2.5284045705E+00  9.8721336617E-03  9.3319511674E-03  5.2744340663E-01
  2.1003344482E+04  1.8399474373E-01  2.5238320564E+00  1.0000316479E-02  9.4492954348E-03  5.2887465694E-01
  2.1100334448E+04  1.8511375169E-01  2.5193473331E+00  1.0129561575E-02  9.5675498327E-03  5.3029847921E-01
  2.1197324415E+04  1.8623491654E-01  2.5148971683E+00  1.0259872809E-02  9.6867040770E-03  5.3171493131E-01
  2.1294314381E+04  1.8735770709E-01  2.5104751263E+00  1.0391254038E-02  9.8067587627E-03  5.3312407045E-01
  2.1391304348E+04  1.8848307004E-01  2.5060917325E+00  1.0523709113E-02  9.9277187543E-03  5.3452595325E-01
  2.1488294314E+04  1.8961468927E-01  2.5017880925E+00  1.0657241883E-02  1.0049597235E-02  5.3592063570E-01
  2.1585284281E+04  1.9074796044E-01  2.4975111745E+00  1.0791856192E-02  1.0172382834E-02  5.3730817320E-01
  2.1682274247E+04  1.9188287853E-01  2.4932606937E+00  1.0927555882E-02  1.0296077571E-02  5.3868862054E-01
  2.1779264214E+04  1.9302150790E-01  2.4890593921E+00  1.1064344790E-02  1.0420689886E-02  5.4006203194E-01
  2.1876254181E+04  1.9416529718E-01  2.4849225221E+00  1.1202226750E-02  1.0546226594E-02  5.4142846181E-01
  2.1973244147E+04  1.9531075939E-01  2.4808107828E+00  1.1341205592E-02  1.0672678988E-02  5.4278796515E-01
  2.2070234114E+04  1.9645788956E-01  2.4767239116E+00  1.1481285141E-02  1.0800049040E-02  5.4414059564E-01
  2.2167224080E+04  1.9760950349E-01  2.4726923493E+00  1.1622469222E-02  1.0928347935E-02  5.4548640637E-01
  2.2264214047E+04  1.9876554458E-01  2.4687145996E+00  1.1764761654E-02  1.1057577788E-02  5.4682544984E-01
  2.2361204013E+04  1.9992327942E-01  2.4647604979E+00  1.1908166251E-02  1.1187731723E-02  5.4815777795E-01
  2.2458193980E+04  2.0108270313E-01  2.4608298019E+00  1.2052686826E-02  1.1318811664E-02  5.4948344200E-01
  2.2555183946E+04  2.0224701093E-01  2.4569563632E+00  1.2198327189E-02  1.1450830518E-02  5.5080249273E-01
  2.2652173913E+04  2.0341538254E-01  2.4531305771E+00  1.2345091144E-02  1.1583787746E-02  5.5211498032E-01
  2.2749163880E+04  2.0458546857E-01  2.4493270561E+00  1.2492982493E-02  1.1717677278E-02  5.5342095436E-01
  2.2846153846E+04  2.0575726422E-01  2.4455455765E+00  1.2642005034E-02  1.1852500990E-02  5.5472046393E-01
  2.2943143813E+04  2.0693396679E-01  2.4418193246E+00  1.2792162561E-02  1.1988272298E-02  5.5601355755E-01
  2.3040133779E+04  2.0811474460E-01  2.4381387991E+00  1.2943458868E-02  1.2124990443E-02  5.5730028320E-01
  2.3137123746E+04  2.0929725736E-01  2.4344792474E+00  1.3095897740E-02  1.2262648943E-02  5.5858068836E-01
  2.3234113712E+04  2.1048150034E-01  2.4308404627E+00  1.3249482963E-02  1.2401249629E-02  5.5985481997E-01
  2.3331103679E+04  2.1167029057E-01  2.4272510871E+00  1.3404218319E-02  1.2540804990E-02  5.6112272447E-01
  2.3428093645E+04  2.1286354730E-01  2.4237095368E+00  1.3560107584E-02  1.2681316912E-02  5.6238444781E-01
  2.3525083612E+04  2.1405855936E-01  2.4201877534E+00  1.3717154533E-02  1.2822777071E-02  5.6364003544E-01
  2.3622073579E+04  2.1525532209E-01  2.4166855456E+00  1.3875362939E-02  1.2965187251E-02  5.6488953233E-01
  2.3719063545E+04  2.1645588523E-01  2.4132233137E+00  1.4034736567E-02  1.3108557365E-02  5.6613298295E-01
  2.3816053512E+04  2.1766169066E-01  2.4098148386E+00  1.4195279184E-02  1.3252895244E-02  5.6737043133E-01
  2.3913043478E+04  2.1886927166E-01  2.4064250011E+00  1.4356994550E-02  1.3398189075E-02  5.6860192103E-01
  2.4010033445E+04  2.2007862364E-01  2.4030536243E+00  1.4519886423E-02  1.3544440596E-02  5.6982749513E-01
  2.4107023411E+04  2.2129063768E-01  2.3997093380E+00  1.4683958558E-02  1.3691655247E-02  5.7104719628E-01
  2.4204013378E+04  2.2250905869E-01  2.3964283940E+00  1.4849214707E-02  1.3839850589E-02  5.7226106670E-01
  2.4301003344E+04  2.2372927538E-01  2.3931650299E+00  1.5015658618E-02  1.3989009432E-02  5.7346914814E-01
  2.4397993311E+04  2.2495128320E-01  2.3899190821E+00  1.5183294036E-02  1.4139133469E-02  5.7467148199E-01
  2.4494983278E+04  2.2617507764E-01  2.3866903889E+00  1.5352124704E-02  1.4290224378E-02  5.7586810991E-01
  2.4591973244E+04  2.2740551991E-01  2.3835254100E+00  1.5522154360E-02  1.4442305162E-02  5.7705907308E-01
  2.4688963211E+04  2.2863843616E-01  2.3803833705E+00  1.5693386739E-02  1.4595359687E-02  5.7824441217E-01
  2.4785953177E+04  2.2987316356E-01  2.3772577679E+00  1.5865825575E-02  1.4749386744E-02  5.7942416738E-01
  2.4882943144E+04  2.3110969768E-01  2.3741484523E+00  1.6039474596E-02  1.4904387968E-02  5.8059837854E-01
  2.4979933110E+04  2.3235092820E-01  2.3710824845E+00  1.6214337529E-02  1.5060378237E-02  5.8176708500E-01
  2.5076923077E+04  2.3359660586E-01  2.3680568925E+00  1.6391532055E-02  1.5218318654E-02  5.8293032575E-01
  2.5173913043E+04  2.3484411456E-01  2.3650468185E+00  1.6570260970E-02  1.5377506701E-02  5.8408813932E-01
  2.5270903010E+04  2.3609344990E-01  2.3620521235E+00  1.6750240152E-02  1.5537695580E-02  5.8524056386E-01
  2.5367892977E+04  2.3734512555E-01  2.3590774296E+00  1.6931473498E-02  1.5698889438E-02  5.8638763713E-01
  2.5464882943E+04  2.3860362894E-01  2.3561635078E+00  1.7113964902E-02  1.5861111721E-02  5.8752939650E-01
  2.5561872910E+04  2.3986398314E-01  2.3532642422E+00  1.7297718257E-02  1.6024340555E-02  5.8866587893E-01
  2.5658862876E+04  2.4112618383E-01  2.3503795038E+00  1.7482737450E-02  1.6188577580E-02  5.8979712101E-01
  2.5755852843E+04  2.4239022673E-01  2.3475091654E+00  1.7669026366E-02  1.6353824423E-02  5.9092315899E-01
  2.5852842809E+04  2.4365934731E-01  2.3446819616E+00  1.7856588890E-02  1.6520099021E-02  5.9204402870E-01
  2.5949832776E+04  2.4493261083E-01  2.3418889793E+00  1.8045428900E-02  1.6687398742E-02  5.9315976564E-01
  2.6046822742E+04  2.4620774060E-01  2.3391097249E+00  1.8235550276E-02  1.6855713849E-02  5.9427040494E-01
  2.6143812709E+04  2.4748473239E-01  2.3363440804E+00  1.8426956889E-02  1.7025045921E-02  5.9537598138E-01
  2.6240802676E+04  2.4876359363E-01  2.3335920302E+00  1.8619652614E-02  1.7195396587E-02  5.9647652939E-01
  2.6337792642E+04  2.5004982783E-01  2.3309010579E+00  1.8813641319E-02  1.7366796613E-02  5.9757208306E-01
  2.6434782609E+04  2.5133794793E-01  2.3282230631E+00  1.9008926870E-02  1.7539219052E-02  5.9866267615E-01
  2.6531772575E+04  2.5262794977E-01  2.3255579358E+00  1.9205513131E-02  1.7712665441E-02  5.9974834207E-01
  2.6628762542E+04  2.5391982920E-01  2.3229055675E+00  1.9403403962E-02  1.7887137301E-02  6.0082911391E-01
  2.6725752508E+04  2.5521545024E-01  2.3202816221E+00  1.9602603223E-02  1.8062646454E-02  6.0190502439E-01
  2.6822742475E+04  2.5651661948E-01  2.3177008928E+00  1.9803114768E-02  1.8239204797E-02  6.0297610577E-01
  2.6919732441E+04  2.5781969008E-01  2.3151323334E+00  2.0004942451E-02  1.8416793909E-02  6.0404239050E-01
  2.7016722408E+04  2.5912465796E-01  2.3125758430E+00  2.0208090122E-02  1.8595415268E-02  6.0510391077E-01
  2.7113712375E+04  2.6043151906E-01  2.3100313218E+00  2.0412561628E-02  1.8775070337E-02  6.0616069846E-01
  2.7210702341E+04  2.6174355522E-01  2.3075256124E+00  2.0618360815E-02  1.8955779619E-02  6.0721278513E-01
  2.7307692308E+04  2.6305975086E-01  2.3050498832E+00  2.0825491525E-02  1.9137539182E-02  6.0826020202E-01
  2.7404682274E+04  2.6437786337E-01  2.3025855737E+00  2.1033957597E-02  1.9320337605E-02  6.0930298006E-01
  2.7501672241E+04  2.6569788874E-01  2.3001325911E+00  2.1243762868E-02  1.9504176308E-02  6.1034114988E-01
  2.7598662207E+04  2.6701982299E-01  2.2976908436E+00  2.1454911174E-02  1.9689056695E-02  6.1137474182E-01
  2.7695652174E+04  2.6834791633E-01  2.2952941350E+00  2.1667406346E-02  1.9875006039E-02  6.1240378590E-01
  2.7792642140E+04  2.6967922722E-01  2.2929185039E+00  2.1881252214E-02  2.0062008414E-02  6.1342831186E-01
  2.7889632107E+04  2.7101247053E-01  2.2905535948E+00  2.2096452604E-02  2.0250057476E-02  6.1444834915E-01
  2.7986622074E+04  2.7234764233E-01  2.2881993221E+00  2.2313011340E-02  2.0439154589E-02  6.1546392695E-01
  2.8083612040E+04  2.7368473871E-01  2.2858556016E+00  2.2530932246E-02  2.0629301100E-02  6.1647507414E-01
  2.8180602007E+04  2.7502851841E-01  2.2835592427E+00  2.2750219139E-02  2.0820528706E-02  6.1748181933E-01
  2.8277591973E+04  2.7637503092E-01  2.2812791208E+00  2.2970875836E-02  2.1012814180E-02  6.1848419087E-01
  2.8374581940E+04  2.7772349142E-01  2.2790090712E+00  2.3192906152E-02  2.1206153908E-02  6.1948221682E-01
  2.8471571906E+04  2.7907389606E-01  2.2767490151E+00  2.3416313899E-02  2.1400549197E-02  6.2047592499E-01
  2.8568561873E+04  2.8042624102E-01  2.2744988748E+00  2.3641102885E-02  2.1596001337E-02  6.2146534293E-01
  2.8665551839E+04  2.8178532387E-01  2.2722947539E+00  2.3867276917E-02  2.1792543653E-02  6.2245049791E-01
  2.8762541806E+04  2.8314712184E-01  2.2701058401E+00  2.4094839801E-02  2.1990151214E-02  6.2343141698E-01
  2.8859531773E+04  2.8451088341E-01  2.2679263931E+00  2.4323795337E-02  2.2188820339E-02  6.2440812692E-01
  2.8956521739E+04  2.8587660482E-01  2.2657563404E+00  2.4554147324E-02  2.2388552275E-02  6.2538065424E-01
  2.9053511706E+04  2.8724428229E-01  2.2635956100E+00  2.4785899561E-02  2.2589348259E-02  6.2634902526E-01
  2.9150501672E+04  2.8861827304E-01  2.2614761140E+00  2.5019055841E-02  2.2791239955E-02  6.2731326601E-01
  2.9247491639E+04  2.8999543784E-01  2.2593743725E+00  2.5253619957E-02  2.2994207300E-02  6.2827340230E-01
  2.9344481605E+04  2.9137458187E-01  2.2572815328E+00  2.5489595698E-02  2.3198243260E-02  6.2922945971E-01
  2.9441471572E+04  2.9275570144E-01  2.2551975281E+00  2.5726986852E-02  2.3403349028E-02  6.3018146357E-01
  2.9538461538E+04  2.9413879284E-01  2.2531222920E+00  2.5965797204E-02  2.3609525784E-02  6.3112943901E-01
  2.9635451505E+04  2.9552728468E-01  2.2510802696E+00  2.6206030535E-02  2.3816799730E-02  6.3207341091E-01
  2.9732441472E+04  2.9691989517E-01  2.2490619091E+00  2.6447690627E-02  2.4025163268E-02  6.3301340394E-01
  2.9829431438E+04  2.9831450055E-01  2.2470519230E+00  2.6690781257E-02  2.4234602219E-02  6.3394944253E-01
  2.9926421405E+04  2.9971109719E-01  2.2450502492E+00  2.6935306201E-02  2.4445117720E-02  6.3488155091E-01
  3.0023411371E+04  3.0110968146E-01  2.2430568268E+00  2.7181575733E-02  2.4656963105E-02  6.3580975311E-01
  3.0120401338E+04  3.0251225719E-01  2.2410855642E+00  2.7430262236E-02  2.4870703716E-02  6.3673407290E-01
  3.0217391304E+04  3.0392039203E-01  2.2391470450E+00  2.7680413504E-02  2.5085565678E-02  6.3765453390E-01
  3.0314381271E+04  3.0533053743E-01  2.2372164067E+00  2.7932033422E-02  2.5301523370E-02  6.3857115947E-01
  3.0411371237E+04  3.0674268984E-01  2.2352935923E+00  2.8185125871E-02  2.5518577921E-02  6.3948397280E-01
  3.0508361204E+04  3.0815684568E-01  2.2333785452E+00  2.8439694731E-02  2.5736730452E-02  6.4039299687E-01
  3.0605351171E+04  3.0957307741E-01  2.2314717254E+00  2.8695743880E-02  2.5955982670E-02  6.4129825444E-01
  3.0702341137E+04  3.1099681841E-01  2.2296097761E+00  2.8953277194E-02  2.6176379259E-02  6.4219976811E-01
  3.0799331104E+04  3.1242258571E-01  2.2277552458E+00  2.9212298547E-02  2.6397878122E-02  6.4309756027E-01
  3.0896321070E+04  3.1385037580E-01  2.2259080817E+00  2.9472811809E-02  2.6620480333E-02  6.4399165364E-01
  3.0993311037E+04  3.1528018520E-01  2.2240682316E+00  2.9734820851E-02  2.6844186957E-02  6.4488207116E-01
  3.1090301003E+04  3.1671201041E-01  2.2222356437E+00  2.9998329538E-02  2.7068999040E-02  6.4576883461E-01
  3.1187290970E+04  3.1814906217E-01  2.2204314489E+00  3.0263341736E-02  2.7294944478E-02  6.4665196562E-01
