#[MATERIAL DEFINITION FOR MC-GPU: interaction mean free path and sampling data from PENELOPE 2006]
#[MATERIAL NAME]
# czt                                                           
#[NOMINAL DENSITY (g/cm^3)]
#   5.78000000
#[NUMBER OF DATA VALUES]
#   1495
#[MEAN FREE PATHS (cm) (ie, average distance between interactions)]
#[Energy (eV)     | Rayleigh        | Compton         | Photoelectric   | TOTAL (+pair prod) (cm) | Rayleigh: max cumul prob F^2]
  5.0000000000E+03  4.0212636837E-02  3.2688926305E+00  2.5720367948E-04  2.5554905732E-04  1.5107408939E-01
  5.0969899666E+03  4.0744461151E-02  3.2336113224E+00  2.7031675897E-04  2.6851287930E-04  1.5483123721E-01
  5.1939799331E+03  4.1280123691E-02  3.1994316760E+00  2.8383196722E-04  2.8186890055E-04  1.5857851361E-01
  5.2909698997E+03  4.1819619668E-02  3.1663105877E+00  2.9775376998E-04  2.9562116125E-04  1.6231523302E-01
  5.3879598662E+03  4.2362940419E-02  3.1342070247E+00  3.1208659833E-04  3.0977365893E-04  1.6604067330E-01
  5.4849498328E+03  4.2910073523E-02  3.1030818791E+00  3.2683820081E-04  3.2433364950E-04  1.6975417082E-01
  5.5819397993E+03  4.3461002912E-02  3.0728978349E+00  3.4205008692E-04  3.3934160210E-04  1.7345512892E-01
  5.6789297659E+03  4.4015708970E-02  3.0436192467E+00  3.5768938623E-04  3.5476473274E-04  1.7714301375E-01
  5.7759197324E+03  4.4574168619E-02  3.0152120287E+00  3.7376049351E-04  3.7060696369E-04  1.8081734969E-01
  5.8729096990E+03  4.5136355396E-02  2.9876435523E+00  3.9026777297E-04  3.8687217853E-04  1.8447765723E-01
  5.9698996656E+03  4.5702239536E-02  2.9608825455E+00  4.0721555898E-04  4.0356422286E-04  1.8812343277E-01
  6.0668896321E+03  4.6271788779E-02  2.9348986281E+00  4.2473675343E-04  4.2081313703E-04  1.9175422160E-01
  6.1638795987E+03  4.6844969703E-02  2.9096616331E+00  4.4277562193E-04  4.3856360898E-04  1.9536961645E-01
  6.2608695652E+03  4.7421747560E-02  2.8851417403E+00  4.6128080248E-04  4.5676473254E-04  1.9896925466E-01
  6.3578595318E+03  4.8002084375E-02  2.8613104210E+00  4.8025683922E-04  4.7542049990E-04  2.0255281080E-01
  6.4548494983E+03  4.8586333309E-02  2.8381486805E+00  4.9970824955E-04  4.9453490833E-04  2.0611994455E-01
  6.5518394649E+03  4.9174564590E-02  2.8156332056E+00  5.1963952469E-04  5.1411189786E-04  2.0967032431E-01
  6.6488294314E+03  4.9766337306E-02  2.7937310603E+00  5.4005513023E-04  5.3415531769E-04  2.1320365504E-01
  6.7458193980E+03  5.0361601527E-02  2.7724184998E+00  5.6095950667E-04  5.5466902140E-04  2.1671967560E-01
  6.8428093645E+03  5.0960304075E-02  2.7516727737E+00  5.8235706989E-04  5.7565682835E-04  2.2021815598E-01
  6.9397993311E+03  5.1562388539E-02  2.7314720618E+00  6.0425221165E-04  5.9712252415E-04  2.2369886930E-01
  7.0367892977E+03  5.2167842371E-02  2.7117964278E+00  6.2679389047E-04  6.1921098103E-04  2.2716158959E-01
  7.1337792642E+03  5.2778026910E-02  2.6926557103E+00  6.5009413080E-04  6.4203089865E-04  2.3060611766E-01
  7.2307692308E+03  5.3391522398E-02  2.6740003165E+00  6.7392811168E-04  6.6536196860E-04  2.3403228024E-01
  7.3277591973E+03  5.4008257961E-02  2.6558106644E+00  6.9830064883E-04  6.8920830317E-04  2.3743992996E-01
  7.4247491639E+03  5.4628159994E-02  2.6380680786E+00  7.2321653628E-04  7.1357398082E-04  2.4082893394E-01
  7.5217391304E+03  5.5252007290E-02  2.6207718985E+00  7.4868054675E-04  7.3846320048E-04  2.4419914301E-01
  7.6187290970E+03  5.5880047001E-02  2.6039110471E+00  7.7469743200E-04  7.6388005642E-04  2.4755042494E-01
  7.7157190635E+03  5.6511141949E-02  2.5874477961E+00  8.0127192322E-04  7.8982834956E-04  2.5088266755E-01
  7.8127090301E+03  5.7145208915E-02  2.5713665593E+00  8.2840873139E-04  8.1631202962E-04  2.5419577750E-01
  7.9096989967E+03  5.7783539412E-02  2.5556787663E+00  8.5611254756E-04  8.4333530962E-04  2.5748967919E-01
  8.0066889632E+03  5.8425738082E-02  2.5403635162E+00  8.8440113068E-04  8.7091473444E-04  2.6076431365E-01
  8.1036789298E+03  5.9070771830E-02  2.5253886118E+00  9.1344812103E-04  8.9921770541E-04  2.6401963754E-01
  8.2006688963E+03  5.9718986643E-02  2.5107487952E+00  9.4308631378E-04  9.2808138371E-04  2.6725561767E-01
  8.2976588629E+03  6.0372141088E-02  2.4964635693E+00  9.7332053190E-04  9.5751022439E-04  2.7047220701E-01
  8.3946488294E+03  6.1027969667E-02  2.4824806615E+00  1.0041555802E-03  9.8750766327E-04  2.7366936989E-01
  8.4916387960E+03  6.1686468934E-02  2.4687901168E+00  1.0355962457E-03  1.0180776372E-03  2.7684708445E-01
  8.5886287625E+03  6.2350370771E-02  2.4554278384E+00  1.0676472978E-03  1.0492248377E-03  2.8000534081E-01
  8.6856187291E+03  6.3016770339E-02  2.4423345842E+00  1.1003134885E-03  1.0809523747E-03  2.8314414035E-01
  8.7826086957E+03  6.3685926298E-02  2.4295061026E+00  1.1335995529E-03  1.1132641788E-03  2.8626349500E-01
  8.8795986622E+03  6.4360328897E-02  2.4169730002E+00  1.1675102092E-03  1.1461648808E-03  2.8936342656E-01
  8.9765886288E+03  6.5037038558E-02  2.4046798230E+00  1.2020501589E-03  1.1796573984E-03  2.9244396657E-01
  9.0735785953E+03  6.5717201370E-02  2.3926367132E+00  1.2375114304E-03  1.2140224312E-03  2.9550514879E-01
  9.1705685619E+03  6.6401817233E-02  2.3808503925E+00  1.2737185606E-03  1.2490902871E-03  2.9854700360E-01
  9.2675585284E+03  6.7088532087E-02  2.3692783899E+00  1.3105872482E-03  1.2847781756E-03  3.0156956868E-01
  9.3645484950E+03  6.7780011786E-02  2.3579524140E+00  1.3481224649E-03  1.3210910784E-03  3.0457288914E-01
  9.4615384615E+03  6.8474498941E-02  2.3468398455E+00  1.3863291671E-03  1.3580323351E-03  3.0755701711E-01
  9.5585284281E+03  6.9171717205E-02  2.3359307120E+00  1.4252122963E-03  1.3956057750E-03  3.1052201123E-01
  9.6555183946E+03  6.9873934476E-02  2.3252493542E+00  1.0944434897E-03  1.0770663244E-03  3.1346793626E-01
  9.7525083612E+03  7.0577917215E-02  2.3147460666E+00  1.1236891586E-03  1.1055507141E-03  3.1639486264E-01
  9.8494983278E+03  7.1286915405E-02  2.3044580084E+00  1.1534139826E-03  1.1344902344E-03  3.1930286614E-01
  9.9464882943E+03  7.1998462703E-02  2.2943471379E+00  1.1836209427E-03  1.1638867580E-03  3.2219202744E-01
  1.0043478261E+04  7.2713507445E-02  2.2844204905E+00  1.2143831586E-03  1.1938107867E-03  3.2506243184E-01
  1.0140468227E+04  7.3432555429E-02  2.2746789395E+00  1.2457245772E-03  1.2242850820E-03  3.2791416891E-01
  1.0237458194E+04  7.4153755842E-02  2.2650950261E+00  1.2775637245E-03  1.2552299212E-03  3.3074733216E-01
  1.0334448161E+04  7.4880223668E-02  2.2557016443E+00  1.3100830068E-03  1.2868217708E-03  3.3356201805E-01
  1.0431438127E+04  7.5607964410E-02  2.2464466115E+00  1.3432753833E-03  1.3190519482E-03  3.3635831755E-01
  1.0528428094E+04  7.6341475273E-02  2.2373784778E+00  1.3769893959E-03  1.3517751581E-03  3.3913632642E-01
  1.0625418060E+04  7.7076410838E-02  2.2284424792E+00  1.4112246256E-03  1.3849891886E-03  3.4189614495E-01
  1.0722408027E+04  7.7816308655E-02  2.2196751669E+00  1.4459845693E-03  1.4186980900E-03  3.4463787603E-01
  1.0819397993E+04  7.8558340502E-02  2.2110406202E+00  1.4812756314E-03  1.4529066344E-03  3.4736162494E-01
  1.0916387960E+04  7.9304713617E-02  2.2025597177E+00  1.5171010459E-03  1.4876182177E-03  3.5006749917E-01
  1.1013377926E+04  8.0053738291E-02  2.1942102023E+00  1.5534640370E-03  1.5228348804E-03  3.5275560824E-01
  1.1110367893E+04  8.0806671657E-02  2.1860022280E+00  1.5903678193E-03  1.5585596914E-03  3.5542606347E-01
  1.1207357860E+04  8.1562580947E-02  2.1779223917E+00  1.6278858162E-03  1.5948623063E-03  3.5807897787E-01
  1.1304347826E+04  8.2322156252E-02  2.1699747196E+00  1.6661385544E-03  1.6318580104E-03  3.6071446593E-01
  1.1401337793E+04  8.3084837345E-02  2.1621501938E+00  1.7049512661E-03  1.6693782333E-03  3.6333264352E-01
  1.1498327759E+04  8.3851133130E-02  2.1544509849E+00  1.7443272673E-03  1.7074258561E-03  3.6593362770E-01
  1.1595317726E+04  8.4620468750E-02  2.1468683084E+00  1.7842698653E-03  1.7460033006E-03  3.6851753661E-01
  1.1692307692E+04  8.5393560517E-02  2.1394064497E+00  1.8247823583E-03  1.7851135213E-03  3.7108448934E-01
  1.1789297659E+04  8.6169429070E-02  2.1320529991E+00  1.8658680362E-03  1.8247587200E-03  3.7363460582E-01
  1.1886287625E+04  8.6949389377E-02  2.1248180474E+00  1.9077337925E-03  1.8651367326E-03  3.7616800669E-01
  1.1983277592E+04  8.7731665086E-02  2.1176819742E+00  1.9502914567E-03  1.9061616336E-03  3.7868481319E-01
  1.2080267559E+04  8.8518563636E-02  2.1106641058E+00  1.9934437467E-03  1.9477409269E-03  3.8118514710E-01
  1.2177257525E+04  8.9307116673E-02  2.1037342792E+00  2.0371940926E-03  1.9898758862E-03  3.8366913059E-01
  1.2274247492E+04  9.0101020400E-02  2.0969242433E+00  2.0815459167E-03  2.0325710700E-03  3.8613688615E-01
  1.2371237458E+04  9.0895717016E-02  2.0901901977E+00  2.1265026332E-03  2.0758268355E-03  3.8858853655E-01
  1.2468227425E+04  9.1696690076E-02  2.0835792828E+00  2.1720676486E-03  2.1196487468E-03  3.9102420470E-01
  1.2565217391E+04  9.2498432657E-02  2.0770402622E+00  2.2184324265E-03  2.1642155091E-03  3.9344401359E-01
  1.2662207358E+04  9.3305493733E-02  2.0706114208E+00  2.2655119141E-03  2.2094478135E-03  3.9584808626E-01
  1.2759197324E+04  9.4114406988E-02  2.0642603287E+00  2.3132195555E-03  2.2552606898E-03  3.9823654568E-01
  1.2856187291E+04  9.4927340886E-02  2.0580043318E+00  2.3615588559E-03  2.3016581095E-03  4.0060951473E-01
  1.2953177258E+04  9.5743474768E-02  2.0518343022E+00  2.4105333130E-03  2.3486423200E-03  4.0296711611E-01
  1.3050167224E+04  9.6562130956E-02  2.0457429347E+00  2.4601464174E-03  2.3962155996E-03  4.0530947232E-01
  1.3147157191E+04  9.7385532457E-02  2.0397474952E+00  2.5104016525E-03  2.4443820356E-03  4.0763670556E-01
  1.3244147157E+04  9.8209825698E-02  2.0338135011E+00  2.5613024949E-03  2.4931418414E-03  4.0994893776E-01
  1.3341137124E+04  9.9040471371E-02  2.0279859398E+00  2.6128524138E-03  2.5425012480E-03  4.1224629044E-01
  1.3438127090E+04  9.9872117789E-02  2.0222176798E+00  2.6650548716E-03  2.5924593702E-03  4.1452888475E-01
  1.3535117057E+04  1.0070817795E-01  2.0165363358E+00  2.7179133240E-03  2.6430211451E-03  4.1679684138E-01
  1.3632107023E+04  1.0154721882E-01  2.0109281349E+00  2.7714312196E-03  2.6941882245E-03  4.1905028055E-01
  1.3729096990E+04  1.0238853396E-01  2.0053860070E+00  2.8256120005E-03  2.7459626922E-03  4.2128932196E-01
  1.3826086957E+04  1.0323500811E-01  1.9999324774E+00  2.8804591019E-03  2.7983492701E-03  4.2351408476E-01
  1.3923076923E+04  1.0408248964E-01  1.9945317464E+00  2.9359759524E-03  2.8513474558E-03  4.2572468754E-01
  1.4020066890E+04  1.0493536058E-01  1.9892188844E+00  2.9921659741E-03  2.9049631517E-03  4.2792124828E-01
  1.4117056856E+04  1.0579035106E-01  1.9839654329E+00  3.0490325827E-03  2.9591964116E-03  4.3010388433E-01
  1.4214046823E+04  1.0664814691E-01  1.9787760635E+00  3.1065791871E-03  3.0140502928E-03  4.3227271241E-01
  1.4311036789E+04  1.0751067988E-01  1.9736651376E+00  3.1648091901E-03  3.0695289256E-03  4.3442784853E-01
  1.4408026756E+04  1.0837429213E-01  1.9686018007E+00  3.2237259880E-03  3.1256317986E-03  4.3656940803E-01
  1.4505016722E+04  1.0924334049E-01  1.9636202956E+00  3.2833329708E-03  3.1823651041E-03  4.3869750556E-01
  1.4602006689E+04  1.1011456453E-01  1.9586929498E+00  3.3436335224E-03  3.2397285681E-03  4.4081225271E-01
  1.4698996656E+04  1.1098819350E-01  1.9538207954E+00  3.4046310204E-03  3.2977248338E-03  4.4291376233E-01
  1.4795986622E+04  1.1186705780E-01  1.9490252288E+00  3.4663288362E-03  3.3563589495E-03  4.4500214511E-01
  1.4892976589E+04  1.1274707094E-01  1.9442726508E+00  3.5287303353E-03  3.4156296426E-03  4.4707751347E-01
  1.4989966555E+04  1.1363162679E-01  1.9395891539E+00  3.5918388770E-03  3.4755425142E-03  4.4913997878E-01
  1.5086956522E+04  1.1451934347E-01  1.9349625615E+00  3.6563415089E-03  3.5367384282E-03  4.5118965139E-01
  1.5183946488E+04  1.1540823992E-01  1.9303765474E+00  3.7216579279E-03  3.5986707978E-03  4.5322664056E-01
  1.5280936455E+04  1.1630356695E-01  1.9258713455E+00  3.7877139964E-03  3.6612746849E-03  4.5525105457E-01
  1.5377926421E+04  1.1720022713E-01  1.9214059710E+00  3.8545133142E-03  3.7245475906E-03  4.5726300061E-01
  1.5474916388E+04  1.1809958766E-01  1.9169904885E+00  3.9220594755E-03  3.7884934469E-03  4.5926258488E-01
  1.5571906355E+04  1.1900403281E-01  1.9126423519E+00  3.9903560691E-03  3.8531173796E-03  4.6124991255E-01
  1.5668896321E+04  1.1990972411E-01  1.9083309848E+00  4.0594066788E-03  3.9184178516E-03  4.6322508777E-01
  1.5765886288E+04  1.2081949824E-01  1.9040776602E+00  4.1292148826E-03  3.9844004812E-03  4.6518821370E-01
  1.5862876254E+04  1.2173302915E-01  1.8998787879E+00  4.1997842535E-03  4.0510674970E-03  4.6713939246E-01
  1.5959866221E+04  1.2264783565E-01  1.8957146855E+00  4.2711183592E-03  4.1184185827E-03  4.6907872522E-01
  1.6056856187E+04  1.2356784918E-01  1.8916147391E+00  4.3432207622E-03  4.1864607969E-03  4.7100631215E-01
  1.6153846154E+04  1.2449054701E-01  1.8875586889E+00  4.4160950200E-03  4.2551937351E-03  4.7292225241E-01
  1.6250836120E+04  1.2541454944E-01  1.8835355381E+00  4.4897446846E-03  4.3246181681E-03  4.7482664422E-01
  1.6347826087E+04  1.2634462163E-01  1.8795806609E+00  4.5641733033E-03  4.3947424191E-03  4.7671958508E-01
  1.6444816054E+04  1.2727656421E-01  1.8756613962E+00  4.6393844182E-03  4.4655638068E-03  4.7860117299E-01
  1.6541806020E+04  1.2820988927E-01  1.8717736493E+00  4.7153815663E-03  4.5370840739E-03  4.8047150513E-01
  1.6638795987E+04  1.2914978388E-01  1.8679555957E+00  4.7921682799E-03  4.6093123904E-03  4.8233067758E-01
  1.6735785953E+04  1.3009104583E-01  1.8641674539E+00  4.8697480860E-03  4.6822444457E-03  4.8417878539E-01
  1.6832775920E+04  1.3103403418E-01  1.8604115310E+00  4.9481245071E-03  4.7558830325E-03  4.8601592256E-01
  1.6929765886E+04  1.3198329184E-01  1.8567208519E+00  5.0273010606E-03  4.8302367756E-03  4.8784218209E-01
  1.7026755853E+04  1.3293394460E-01  1.8530585154E+00  5.1072812589E-03  4.9053014100E-03  4.8965765592E-01
  1.7123745819E+04  1.3388639999E-01  1.8494271877E+00  5.1880686101E-03  4.9810797873E-03  4.9146243506E-01
  1.7220735786E+04  1.3484508944E-01  1.8458587888E+00  5.2696666171E-03  5.0575806658E-03  4.9325660948E-01
  1.7317725753E+04  1.3580520138E-01  1.8423172585E+00  5.3520787782E-03  5.1347994869E-03  4.9504026821E-01
  1.7414715719E+04  1.3676692214E-01  1.8388036476E+00  5.4353085871E-03  5.2127387621E-03  4.9681349930E-01
  1.7511705686E+04  1.3773510931E-01  1.8353527284E+00  5.5194094387E-03  5.2914540511E-03  4.9857638986E-01
  1.7608695652E+04  1.3870474601E-01  1.8319272925E+00  5.6047043398E-03  5.3712334590E-03  5.0032902608E-01
  1.7705685619E+04  1.3967582641E-01  1.8285270130E+00  5.6908378181E-03  5.4517489894E-03  5.0207149320E-01
  1.7802675585E+04  1.4065327562E-01  1.8251868036E+00  5.7778134546E-03  5.5330108404E-03  5.0380387555E-01
  1.7899665552E+04  1.4163250212E-01  1.8218729451E+00  5.8656348257E-03  5.6150141077E-03  5.0552625620E-01
  1.7996655518E+04  1.4261319907E-01  1.8185829625E+00  5.9543055036E-03  5.6977605354E-03  5.0723871709E-01
  1.8093645485E+04  1.4359950720E-01  1.8153458138E+00  6.0438290561E-03  5.7812593482E-03  5.0894134132E-01
  1.8190635452E+04  1.4458838713E-01  1.8121392294E+00  6.1342090465E-03  5.8655078551E-03  5.1063421118E-01
  1.8287625418E+04  1.4557876397E-01  1.8089553157E+00  6.2254490342E-03  5.9505064606E-03  5.1231740802E-01
  1.8384615385E+04  1.4657371498E-01  1.8058152809E+00  6.3175525738E-03  6.0362628047E-03  5.1399101228E-01
  1.8481605351E+04  1.4757230927E-01  1.8027119108E+00  6.4105232161E-03  6.1227776306E-03  5.1565510346E-01
  1.8578595318E+04  1.4857242665E-01  1.7996300759E+00  6.5043645075E-03  6.2100493946E-03  5.1730976019E-01
  1.8675585284E+04  1.4957579962E-01  1.7965814864E+00  6.5990799902E-03  6.2980834612E-03  5.1895506019E-01
  1.8772575251E+04  1.5058416656E-01  1.7935774969E+00  6.6949719429E-03  6.3871572887E-03  5.2059108034E-01
  1.8869565217E+04  1.5159408247E-01  1.7905939720E+00  6.7919061853E-03  6.4771408269E-03  5.2221789663E-01
  1.8966555184E+04  1.5260565187E-01  1.7876314177E+00  6.8897361092E-03  6.5678996107E-03  5.2383558422E-01
  1.9063545151E+04  1.5362384712E-01  1.7847231861E+00  6.9884653469E-03  6.6594456296E-03  5.2544421743E-01
  1.9160535117E+04  1.5464361695E-01  1.7818344086E+00  7.0880975265E-03  6.7517713693E-03  5.2704386976E-01
  1.9257525084E+04  1.5566495583E-01  1.7789648576E+00  7.1886362725E-03  6.8448789662E-03  5.2863461389E-01
  1.9354515050E+04  1.5669122952E-01  1.7761368198E+00  7.2900852051E-03  6.9387774966E-03  5.3021652173E-01
  1.9451505017E+04  1.5772090610E-01  1.7733394190E+00  7.3924479412E-03  7.0334661767E-03  5.3178966436E-01
  1.9548494983E+04  1.5875217712E-01  1.7705603051E+00  7.4957280934E-03  7.1289434416E-03  5.3335411211E-01
  1.9645484950E+04  1.5978618311E-01  1.7678068387E+00  7.5999292708E-03  7.2252138473E-03  5.3490993455E-01
  1.9742474916E+04  1.6082581672E-01  1.7650976229E+00  7.7050550786E-03  7.3222859063E-03  5.3645720049E-01
  1.9839464883E+04  1.6186706992E-01  1.7624058057E+00  7.8111091184E-03  7.4201531805E-03  5.3799597799E-01
  1.9936454849E+04  1.6290993730E-01  1.7597311913E+00  7.9180949878E-03  7.5188177214E-03  5.3952633437E-01
  2.0033444816E+04  1.6395820738E-01  1.7570981763E+00  8.0262867615E-03  7.6185339166E-03  5.4104833624E-01
  2.0130434783E+04  1.6500949113E-01  1.7544906642E+00  8.1359432373E-03  7.7195278098E-03  5.4256204951E-01
  2.0227424749E+04  1.6606241400E-01  1.7518995268E+00  8.2465599509E-03  7.8213401897E-03  5.4406753935E-01
  2.0324414716E+04  1.6711792991E-01  1.7493307143E+00  8.3581406457E-03  7.9239754431E-03  5.4556487027E-01
  2.0421404682E+04  1.6817929474E-01  1.7468045883E+00  8.4706890617E-03  8.0274436216E-03  5.4705410609E-01
  2.0518394649E+04  1.6924232344E-01  1.7442940536E+00  8.5842089354E-03  8.1317370000E-03  5.4853530993E-01
  2.0615384615E+04  1.7030701074E-01  1.7417989409E+00  8.6987040002E-03  8.2368576475E-03  5.5000854425E-01
  2.0712374582E+04  1.7137633040E-01  1.7393376995E+00  8.8141779859E-03  8.3428151067E-03  5.5147387107E-01
  2.0809364548E+04  1.7244951458E-01  1.7369050111E+00  8.9306346189E-03  8.4496097780E-03  5.5293135224E-01
  2.0906354515E+04  1.7352438196E-01  1.7344870135E+00  9.0480776226E-03  8.5572382986E-03  5.5438104910E-01
  2.1003344482E+04  1.7460092735E-01  1.7320835505E+00  9.1665107168E-03  8.6657026877E-03  5.5582302227E-01
  2.1100334448E+04  1.7568382806E-01  1.7297230938E+00  9.2859376180E-03  8.7750173687E-03  5.5725733174E-01
  2.1197324415E+04  1.7676892279E-01  1.7273796311E+00  9.4063620397E-03  8.8851736553E-03  5.5868403680E-01
  2.1294314381E+04  1.7785572001E-01  1.7250500200E+00  9.5277876918E-03  8.9961722585E-03  5.6010319610E-01
  2.1391304348E+04  1.7894509609E-01  1.7227394299E+00  9.6502182813E-03  9.1080175804E-03  5.6151486765E-01
  2.1488294314E+04  1.8004046326E-01  1.7204680487E+00  9.7736575117E-03  9.2207212221E-03  5.6291910883E-01
  2.1585284281E+04  1.8113755720E-01  1.7182098712E+00  9.8981090834E-03  9.3342735322E-03  5.6431597639E-01
  2.1682274247E+04  1.8223637286E-01  1.7159647618E+00  1.0023576694E-02  9.4486764459E-03  5.6570552648E-01
  2.1779264214E+04  1.8333882517E-01  1.7137439200E+00  1.0150064037E-02  9.5639374619E-03  5.6708781462E-01
  2.1876254181E+04  1.8444625858E-01  1.7115548744E+00  1.0277574803E-02  9.6800626683E-03  5.6846289577E-01
  2.1973244147E+04  1.8555543787E-01  1.7093782903E+00  1.0406112681E-02  9.7970446998E-03  5.6983082426E-01
  2.2070234114E+04  1.8666635807E-01  1.7072140423E+00  1.0535681356E-02  9.9148854428E-03  5.7119165389E-01
  2.2167224080E+04  1.8778163589E-01  1.7050771671E+00  1.0666284507E-02  1.0033594779E-02  5.7254543785E-01
  2.2264214047E+04  1.8890121924E-01  1.7029669467E+00  1.0797925815E-02  1.0153174719E-02  5.7389222880E-01
  2.2361204013E+04  1.9002256754E-01  1.7008684938E+00  1.0930608985E-02  1.0273619489E-02  5.7523207881E-01
  2.2458193980E+04  1.9114567588E-01  1.6987816921E+00  1.1064343552E-02  1.0394936103E-02  5.7656503945E-01
  2.2555183946E+04  1.9227351890E-01  1.6967233149E+00  1.1199127412E-02  1.0517130842E-02  5.7789116173E-01
  2.2652173913E+04  1.9340533344E-01  1.6946886245E+00  1.1334964232E-02  1.0640203401E-02  5.7921049612E-01
  2.2749163880E+04  1.9453893193E-01  1.6926650518E+00  1.1471857676E-02  1.0764148662E-02  5.8052309258E-01
  2.2846153846E+04  1.9567430955E-01  1.6906524891E+00  1.1609811406E-02  1.0888968416E-02  5.8182900056E-01
  2.2943143813E+04  1.9681444822E-01  1.6886674305E+00  1.1748829079E-02  1.1014674500E-02  5.8312826900E-01
  2.3040133779E+04  1.9795857273E-01  1.6867051736E+00  1.1888914351E-02  1.1141266408E-02  5.8442094633E-01
  2.3137123746E+04  1.9910450016E-01  1.6847534255E+00  1.2030070875E-02  1.1268738646E-02  5.8570708050E-01
  2.3234113712E+04  2.0025222579E-01  1.6828120863E+00  1.2172302300E-02  1.1397092957E-02  5.8698671897E-01
  2.3331103679E+04  2.0140438151E-01  1.6808954346E+00  1.2315612273E-02  1.1526340382E-02  5.8825990872E-01
  2.3428093645E+04  2.0256089239E-01  1.6790026984E+00  1.2460004437E-02  1.1656482708E-02  5.8952669624E-01
  2.3525083612E+04  2.0371922511E-01  1.6771198998E+00  1.2605482433E-02  1.1787512816E-02  5.9078712758E-01
  2.3622073579E+04  2.0487937501E-01  1.6752469461E+00  1.2752049900E-02  1.1919432404E-02  5.9204124833E-01
  2.3719063545E+04  2.0604326051E-01  1.6733940379E+00  1.2900198540E-02  1.2052676311E-02  5.9328910359E-01
  2.3816053512E+04  2.0721223174E-01  1.6715680795E+00  1.3049592901E-02  1.2186954669E-02  5.9453073806E-01
  2.3913043478E+04  2.0838304368E-01  1.6697515224E+00  1.3200099616E-02  1.2322137570E-02  5.9576619596E-01
  2.4010033445E+04  2.0955569176E-01  1.6679442804E+00  1.3351722408E-02  1.2458226714E-02  5.9699552109E-01
  2.4107023411E+04  2.1073101133E-01  1.6661506826E+00  1.3504464992E-02  1.2595227039E-02  5.9821875683E-01
  2.4204013378E+04  2.1191251452E-01  1.6643889166E+00  1.3658331083E-02  1.2733154097E-02  5.9943594612E-01
  2.4301003344E+04  2.1309587726E-01  1.6626360479E+00  1.3813324394E-02  1.2871993013E-02  6.0064713148E-01
  2.4397993311E+04  2.1428109502E-01  1.6608919964E+00  1.3969448634E-02  1.3011745439E-02  6.0185235503E-01
  2.4494983278E+04  2.1546816332E-01  1.6591566828E+00  1.4126707509E-02  1.3152413012E-02  6.0305165847E-01
  2.4591973244E+04  2.1666164923E-01  1.6574534768E+00  1.4285104725E-02  1.3294016075E-02  6.0424508311E-01
  2.4688963211E+04  2.1785763195E-01  1.6557618871E+00  1.4444643981E-02  1.3436540640E-02  6.0543266985E-01
  2.4785953177E+04  2.1905548854E-01  1.6540786460E+00  1.4605328977E-02  1.3579985805E-02  6.0661445920E-01
  2.4882943144E+04  2.2025521459E-01  1.6524036800E+00  1.4767163410E-02  1.3724353161E-02  6.0779049130E-01
  2.4979933110E+04  2.2145952979E-01  1.6507506474E+00  1.4930150972E-02  1.3869655939E-02  6.0896080587E-01
  2.5076923077E+04  2.2266820005E-01  1.6491180617E+00  1.5095057455E-02  1.4016552172E-02  6.1012544230E-01
  2.5173913043E+04  2.2387876298E-01  1.6474933835E+00  1.5261338824E-02  1.4164559415E-02  6.1128443957E-01
  2.5270903010E+04  2.2509121422E-01  1.6458765441E+00  1.5428801873E-02  1.4313509252E-02  6.1243783617E-01
  2.5367892977E+04  2.2630603789E-01  1.6442698949E+00  1.5597450415E-02  1.4463405461E-02  6.1358567113E-01
  2.5464882943E+04  2.2752746558E-01  1.6426941675E+00  1.5767288263E-02  1.4614268819E-02  6.1472798218E-01
  2.5561872910E+04  2.2875080471E-01  1.6411259317E+00  1.5938319225E-02  1.4766080179E-02  6.1586480674E-01
  2.5658862876E+04  2.2997605100E-01  1.6395651238E+00  1.6110547108E-02  1.4918841102E-02  6.1699618191E-01
  2.5755852843E+04  2.3120320019E-01  1.6380116806E+00  1.6283975717E-02  1.5072553137E-02  6.1812214441E-01
  2.5852842809E+04  2.3243530850E-01  1.6364803387E+00  1.6458608853E-02  1.5227232235E-02  6.1924273061E-01
  2.5949832776E+04  2.3367149349E-01  1.6349665407E+00  1.6634450315E-02  1.5382876181E-02  6.2035797654E-01
  2.6046822742E+04  2.3490960447E-01  1.6334597826E+00  1.6811503903E-02  1.5539476485E-02  6.2146791786E-01
  2.6143812709E+04  2.3614963726E-01  1.6319600056E+00  1.6989773410E-02  1.5697034646E-02  6.2257258993E-01
  2.6240802676E+04  2.3739159871E-01  1.6304672041E+00  1.7169262629E-02  1.5855552204E-02  6.2367202776E-01
  2.6337792642E+04  2.3864069715E-01  1.6290059449E+00  1.7349975352E-02  1.6015056488E-02  6.2476626601E-01
  2.6434782609E+04  2.3989174041E-01  1.6275513593E+00  1.7531915365E-02  1.6175523746E-02  6.2585533906E-01
  2.6531772575E+04  2.4114472435E-01  1.6261033926E+00  1.7715086456E-02  1.6336955431E-02  6.2693928092E-01
  2.6628762542E+04  2.4239964489E-01  1.6246619906E+00  1.7899492407E-02  1.6499352981E-02  6.2801812532E-01
  2.6725752508E+04  2.4365826907E-01  1.6232353286E+00  4.3227454502E-03  4.2363075770E-03  6.2909190566E-01
  2.6822742475E+04  2.4492231013E-01  1.6218311354E+00  4.3607226774E-03  4.2731517863E-03  6.3016065503E-01
  2.6919732441E+04  2.4618831074E-01  1.6204332188E+00  4.3988935644E-03  4.3101786916E-03  6.3122440623E-01
  2.7016722408E+04  2.4745626688E-01  1.6190415281E+00  4.4372583874E-03  4.3473884981E-03  6.3228319176E-01
  2.7113712375E+04  2.4872617452E-01  1.6176560135E+00  4.4758174223E-03  4.3847814102E-03  6.3333704379E-01
  2.7210702341E+04  2.5000115075E-01  1.6162908061E+00  4.5145709441E-03  4.4223587144E-03  6.3438599425E-01
  2.7307692308E+04  2.5128023148E-01  1.6149412689E+00  4.5535192273E-03  4.4601203018E-03  6.3543007474E-01
  2.7404682274E+04  2.5256128665E-01  1.6135976373E+00  4.5926625458E-03  4.4980656424E-03  6.3646931658E-01
  2.7501672241E+04  2.5384431230E-01  1.6122598646E+00  4.6332139193E-03  4.5373580286E-03  6.3750375084E-01
  2.7598662207E+04  2.5512930449E-01  1.6109279047E+00  4.6782249833E-03  4.5809228008E-03  6.3853340826E-01
  2.7695652174E+04  2.5642030765E-01  1.6096197089E+00  4.7235130592E-03  4.6247490866E-03  6.3955831936E-01
  2.7792642140E+04  2.5771452323E-01  1.6083225665E+00  4.7690788724E-03  4.6688364872E-03  6.4057851435E-01
  2.7889632107E+04  2.5901072823E-01  1.6070309829E+00  4.8147972496E-03  4.7130645118E-03  6.4159402319E-01
  2.7986622074E+04  2.6030891879E-01  1.6057449150E+00  4.8583734593E-03  4.7552348128E-03  6.4260487556E-01
  2.8083612040E+04  2.6160909105E-01  1.6044643202E+00  4.9021908789E-03  4.7976315143E-03  6.4361110091E-01
  2.8180602007E+04  2.6291578189E-01  1.6032089163E+00  4.9462500006E-03  4.8402567174E-03  6.4461272839E-01
  2.8277591973E+04  2.6422522556E-01  1.6019620452E+00  4.9905513160E-03  4.8831094100E-03  6.4560978693E-01
  2.8374581940E+04  2.6553667376E-01  1.6007204082E+00  5.0349732984E-03  4.9260728967E-03  6.4660230518E-01
  2.8471571906E+04  2.6685012270E-01  1.5994839656E+00  5.0796086648E-03  4.9692358904E-03  6.4759031157E-01
  2.8568561873E+04  2.6816556860E-01  1.5982526781E+00  5.1244855117E-03  5.0126252018E-03  6.4857383427E-01
  2.8665551839E+04  2.6948759401E-01  1.5970460534E+00  5.1696043159E-03  5.0562430080E-03  6.4955290120E-01
  2.8762541806E+04  2.7081235706E-01  1.5958474569E+00  5.2149655534E-03  5.1000881912E-03  6.5052754005E-01
  2.8859531773E+04  2.7213913987E-01  1.5946537904E+00  5.2605696997E-03  5.1441608365E-03  6.5149777827E-01
  2.8956521739E+04  2.7346793871E-01  1.5934650172E+00  5.3064172293E-03  5.1884613077E-03  6.5246364307E-01
  2.9053511706E+04  2.7479874986E-01  1.5922811009E+00  5.3525086164E-03  5.2329899671E-03  6.5342516144E-01
  2.9150501672E+04  2.7613574316E-01  1.5911194343E+00  5.3991051577E-03  5.2779981466E-03  6.5438236010E-01
  2.9247491639E+04  2.7747591497E-01  1.5899672332E+00  5.4473636116E-03  5.3245896052E-03  6.5533526563E-01
  2.9344481605E+04  2.7881812183E-01  1.5888196770E+00  5.4958913328E-03  5.3714326166E-03  6.5628390410E-01
  2.9441471572E+04  2.8016236011E-01  1.5876767316E+00  5.5446889251E-03  5.4185276491E-03  6.5722830139E-01
  2.9538461538E+04  2.8150862617E-01  1.5865383634E+00  5.5937569915E-03  5.4658751694E-03  6.5816848314E-01
  2.9635451505E+04  2.8286020738E-01  1.5854180114E+00  5.6430961341E-03  5.5134770561E-03  6.5910447478E-01
  2.9732441472E+04  2.8421587533E-01  1.5843104354E+00  5.6927069548E-03  5.5613332787E-03  6.6003630153E-01
  2.9829431438E+04  2.8557359375E-01  1.5832072365E+00  5.7425900544E-03  5.6094434348E-03  6.6096398839E-01
  2.9926421405E+04  2.8693335905E-01  1.5821083833E+00  5.7927460335E-03  5.6578079867E-03  6.6188756018E-01
  3.0023411371E+04  2.8829516767E-01  1.5810138446E+00  5.8430561690E-03  5.7063135921E-03  6.6280704147E-01
  3.0120401338E+04  2.8966094442E-01  1.5799313379E+00  5.8932609723E-03  5.7547136481E-03  6.6372245667E-01
  3.0217391304E+04  2.9103219562E-01  1.5788667420E+00  5.9437333388E-03  5.8033644745E-03  6.6463382996E-01
  3.0314381271E+04  2.9240551279E-01  1.5778062716E+00  5.9944738266E-03  5.8522649828E-03  6.6554118534E-01
  3.0411371237E+04  2.9378089241E-01  1.5767498976E+00  6.0454829925E-03  5.9014155960E-03  6.6644454661E-01
  3.0508361204E+04  2.9515833099E-01  1.5756975912E+00  6.0967613932E-03  5.9508167362E-03  6.6734393738E-01
  3.0605351171E+04  2.9653789818E-01  1.5746496129E+00  6.1483095845E-03  6.0004688581E-03  6.6823938105E-01
  3.0702341137E+04  2.9792482202E-01  1.5736265035E+00  6.2001281216E-03  6.0503748437E-03  6.6913090085E-01
  3.0799331104E+04  2.9931382744E-01  1.5726072827E+00  6.2522175591E-03  6.1005326701E-03  6.7001851983E-01
  3.0896321070E+04  3.0070491099E-01  1.5715919234E+00  6.3045784509E-03  6.1509427548E-03  6.7090226082E-01
  3.0993311037E+04  3.0209806925E-01  1.5705803991E+00  6.3572113503E-03  6.2016055142E-03  6.7178214650E-01
  3.1090301003E+04  3.0349329881E-01  1.5695726833E+00  6.4101168102E-03  6.2525213631E-03  6.7265819937E-01
  3.1187290970E+04  3.0489369394E-01  1.5685807451E+00  6.4632953824E-03  6.3036922333E-03  6.7353044172E-01
