#[MATERIAL DEFINITION FOR MC-GPU: interaction mean free path and sampling data from PENELOPE 2006]
#[MATERIAL NAME]
# GERMANIUM  (32)                                               
#[NOMINAL DENSITY (g/cm^3)]
#   5.32300000
#[NUMBER OF DATA VALUES]
#   1495
#[MEAN FREE PATHS (cm) (ie, average distance between interactions)]
#[Energy (eV)     | Rayleigh        | Compton         | Photoelectric   | TOTAL (+pair prod) (cm) | Rayleigh: max cumul prob F^2]
  5.0000000000E+03  6.0972133243E-02  3.3702508512E+00  7.7035074829E-04  7.6056753287E-04  1.9064515911E-01
  5.0969899666E+03  6.1843169532E-02  3.3352747257E+00  8.1197429519E-04  8.0125904068E-04  1.9518241967E-01
  5.1939799331E+03  6.2724314287E-02  3.3013016612E+00  8.5499828676E-04  8.4328502521E-04  1.9968666938E-01
  5.2909698997E+03  6.3615479817E-02  3.2682877198E+00  8.9944236887E-04  8.8666207731E-04  2.0415699049E-01
  5.3879598662E+03  6.4516575704E-02  3.2361915829E+00  9.4532609188E-04  9.3140662627E-04  2.0859256866E-01
  5.4849498328E+03  6.5427508734E-02  3.2049743464E+00  9.9266891280E-04  9.7753494205E-04  2.1299268585E-01
  5.5819397993E+03  6.6348182849E-02  3.1745993345E+00  1.0414901975E-03  1.0250631373E-03  2.1735672736E-01
  5.6789297659E+03  6.7278499093E-02  3.1450319311E+00  1.0918092225E-03  1.0740071694E-03  2.2168420862E-01
  5.7759197324E+03  6.8218355566E-02  3.1162394266E+00  1.1436451774E-03  1.1243828419E-03  2.2597472837E-01
  5.8729096990E+03  6.9167647388E-02  3.0881908787E+00  1.1970171661E-03  1.1762058064E-03  2.3022795297E-01
  5.9698996656E+03  7.0126266530E-02  3.0608569919E+00  1.2519442093E-03  1.2294915639E-03  2.3444361246E-01
  6.0668896321E+03  7.1094094902E-02  3.0342103142E+00  1.3087757256E-03  1.2845738361E-03  2.3862152196E-01
  6.1638795987E+03  7.2070992396E-02  3.0082256285E+00  1.3673782095E-03  1.3413201110E-03  2.4276157435E-01
  6.2608695652E+03  7.3056798751E-02  2.9828796837E+00  1.4276280256E-03  1.3996079429E-03  2.4686370909E-01
  6.3578595318E+03  7.4051351510E-02  2.9581502658E+00  1.4895448840E-03  1.4594530555E-03  2.5092790686E-01
  6.4548494983E+03  7.5055245384E-02  2.9340178298E+00  1.5531484223E-03  1.5208713325E-03  2.5495418442E-01
  6.5518394649E+03  7.6068516239E-02  2.9104631146E+00  1.6184582068E-03  1.5838783348E-03  2.5894264312E-01
  6.6488294314E+03  7.7090233914E-02  2.8874650135E+00  1.6854937338E-03  1.6484890528E-03  2.6289342795E-01
  6.7458193980E+03  7.8120231585E-02  2.8650047062E+00  1.7542744310E-03  1.7147186253E-03  2.6680670946E-01
  6.8428093645E+03  7.9158342236E-02  2.8430640669E+00  1.8248196589E-03  1.7825820419E-03  2.7068268137E-01
  6.9397993311E+03  8.0204398707E-02  2.8216256261E+00  1.8971487117E-03  1.8520941441E-03  2.7452155835E-01
  7.0367892977E+03  8.1258320387E-02  2.8006728558E+00  1.9714918302E-03  1.9234705316E-03  2.7832357401E-01
  7.1337792642E+03  8.2322532867E-02  2.7802000574E+00  2.0480266892E-03  1.9968772207E-03  2.8208898162E-01
  7.2307692308E+03  8.3394348603E-02  2.7601832610E+00  2.1264387088E-03  2.0720091168E-03  2.8581808343E-01
  7.3277591973E+03  8.4473590159E-02  2.7406075413E+00  2.2067478234E-03  2.1488811876E-03  2.8951121114E-01
  7.4247491639E+03  8.5560081275E-02  2.7214584242E+00  2.2889739089E-03  2.2275082493E-03  2.9316870448E-01
  7.5217391304E+03  8.6655163364E-02  2.7027292194E+00  2.3731367844E-03  2.3079060484E-03  2.9679091041E-01
  7.6187290970E+03  8.7759191438E-02  2.6844103196E+00  2.4592562125E-03  2.3900896429E-03  3.0037818209E-01
  7.7157190635E+03  8.8870097046E-02  2.6664799183E+00  2.5473519002E-03  2.4740721290E-03  3.0393087792E-01
  7.8127090301E+03  8.9987705272E-02  2.6489251961E+00  2.6374435003E-03  2.5598677397E-03  3.0744936243E-01
  7.9096989967E+03  9.1114217218E-02  2.6317469739E+00  2.7295506116E-03  2.6474925746E-03  3.1093402517E-01
  8.0066889632E+03  9.2248866451E-02  2.6149315580E+00  2.8237266134E-03  2.7369920844E-03  3.1438526907E-01
  8.1036789298E+03  9.3389839127E-02  2.5984583529E+00  2.9204285712E-03  2.8287891490E-03  3.1780349655E-01
  8.2006688963E+03  9.4537706818E-02  2.5823202966E+00  3.0192323670E-03  2.9224807225E-03  3.2118910915E-01
  8.2976588629E+03  9.5695392068E-02  2.5665257086E+00  3.1201580148E-03  3.0180839566E-03  3.2454250716E-01
  8.3946488294E+03  9.6859015750E-02  2.5510424355E+00  3.2232254808E-03  3.1156092552E-03  3.2786408922E-01
  8.4916387960E+03  9.8028567795E-02  2.5358608856E+00  3.3284546833E-03  3.2150704663E-03  3.3115425968E-01
  8.5886287625E+03  9.9208549622E-02  2.5210010528E+00  3.4358654942E-03  3.3164863996E-03  3.3441343495E-01
  8.6856187291E+03  1.0039408218E-01  2.5064244052E+00  3.5454777393E-03  3.4198655281E-03  3.3764202853E-01
  8.7826086957E+03  1.0158559339E-01  2.4921250776E+00  3.6573111985E-03  3.5252218082E-03  3.4084044945E-01
  8.8795986622E+03  1.0278710848E-01  2.4781222409E+00  3.7713856073E-03  3.6325736912E-03  3.4400910212E-01
  8.9765886288E+03  1.0399378626E-01  2.4643769028E+00  3.8877206566E-03  3.7419286417E-03  3.4714838616E-01
  9.0735785953E+03  1.0520748129E-01  2.4508938251E+00  4.0066721936E-03  3.8536131930E-03  3.5025869325E-01
  9.1705685619E+03  1.0642974799E-01  2.4376774330E+00  4.1280498946E-03  3.9674474136E-03  3.5334042857E-01
  9.2675585284E+03  1.0765679126E-01  2.4246949501E+00  4.2517694048E-03  4.0833426739E-03  3.5639399877E-01
  9.3645484950E+03  1.0889284728E-01  2.4119692233E+00  4.3778506879E-03  4.2013182597E-03  3.5941980409E-01
  9.4615384615E+03  1.1013507104E-01  2.3994748974E+00  4.5063136673E-03  4.3213831536E-03  3.6241823843E-01
  9.5585284281E+03  1.1138302819E-01  2.3872023620E+00  4.6371782266E-03  4.4435495167E-03  3.6538968940E-01
  9.6555183946E+03  1.1264023872E-01  2.3751716147E+00  4.7704642100E-03  4.5678359048E-03  3.6833453843E-01
  9.7525083612E+03  1.1390161768E-01  2.3633404487E+00  4.9061914229E-03  4.6942466735E-03  3.7125316080E-01
  9.8494983278E+03  1.1517221199E-01  2.3517400472E+00  5.0443796323E-03  4.8228029956E-03  3.7414592576E-01
  9.9464882943E+03  1.1644814823E-01  2.3403374922E+00  5.1850485672E-03  4.9535106522E-03  3.7701319656E-01
  1.0043478261E+04  1.1773089243E-01  2.3291380428E+00  5.3286493063E-03  5.0867776728E-03  3.7985533080E-01
  1.0140468227E+04  1.1902118133E-01  2.3181429036E+00  5.4753324166E-03  5.2227350637E-03  3.8267268961E-01
  1.0237458194E+04  1.2031618002E-01  2.3073257652E+00  5.6245991781E-03  5.3609160932E-03  3.8546563497E-01
  1.0334448161E+04  1.2162062521E-01  2.2967177249E+00  5.7764699741E-03  5.5013428304E-03  3.8823452122E-01
  1.0431438127E+04  1.2292841956E-01  2.2862685289E+00  5.9309651539E-03  5.6440151019E-03  3.9097969599E-01
  1.0528428094E+04  1.2424638897E-01  2.2760250668E+00  6.0881050338E-03  5.7889597171E-03  3.9370150039E-01
  1.0625418060E+04  1.2556792193E-01  2.2659336663E+00  6.2479098971E-03  5.9361744503E-03  3.9640026911E-01
  1.0722408027E+04  1.2689836872E-01  2.2560303001E+00  6.4103999945E-03  6.0856833464E-03  3.9907633062E-01
  1.0819397993E+04  1.2823343602E-01  2.2462790661E+00  6.5755955445E-03  6.2374884244E-03  4.0173000729E-01
  1.0916387960E+04  1.2957644769E-01  2.2367008886E+00  6.7435167337E-03  6.3916093901E-03  4.0436161555E-01
  1.1013377926E+04  1.3092483960E-01  2.2272731793E+00  6.9141837172E-03  6.5480516691E-03  4.0697146562E-01
  1.1110367893E+04  1.3228049691E-01  2.2180062223E+00  9.5465912921E-04  9.4741392944E-04  4.0955986198E-01
  1.1207357860E+04  1.3364199876E-01  2.2088863054E+00  9.7587378427E-04  9.6837474500E-04  4.1212711277E-01
  1.1304347826E+04  1.3501037596E-01  2.1999174661E+00  9.9737096500E-04  9.8961168427E-04  4.1467352173E-01
  1.1401337793E+04  1.3638476861E-01  2.1910904489E+00  1.0191519615E-03  1.0111258892E-03  4.1719938654E-01
  1.1498327759E+04  1.3776593361E-01  2.1824074234E+00  1.0412180585E-03  1.0329185849E-03  4.1970499902E-01
  1.1595317726E+04  1.3915299399E-01  2.1738591887E+00  1.0635705358E-03  1.0549908977E-03  4.2219064525E-01
  1.1692307692E+04  1.4054700854E-01  2.1654504113E+00  1.0862106680E-03  1.0773440611E-03  4.2465660579E-01
  1.1789297659E+04  1.4194651013E-01  2.1571675593E+00  1.1093194657E-03  1.1001559358E-03  4.2710315575E-01
  1.1886287625E+04  1.4335342999E-01  2.1490221475E+00  1.1331842283E-03  1.1237089678E-03  4.2953056501E-01
  1.1983277592E+04  1.4476514330E-01  2.1409919435E+00  1.1573621791E-03  1.1475673133E-03  4.3193909830E-01
  1.2080267559E+04  1.4618501840E-01  2.1330996480E+00  1.1818548433E-03  1.1717325899E-03  4.3432901535E-01
  1.2177257525E+04  1.4760871148E-01  2.1253099734E+00  1.2066637414E-03  1.1962059052E-03  4.3670057104E-01
  1.2274247492E+04  1.4904158605E-01  2.1176611325E+00  1.2317903887E-03  1.2209890097E-03  4.3905401549E-01
  1.2371237458E+04  1.5047702499E-01  2.1101004413E+00  1.2572362958E-03  1.2460828287E-03  4.4138959422E-01
  1.2468227425E+04  1.5192293795E-01  2.1026859389E+00  1.2830029687E-03  1.2714892975E-03  4.4370754821E-01
  1.2565217391E+04  1.5337137882E-01  2.0953546421E+00  1.3088889960E-03  1.2970099705E-03  4.4600811409E-01
  1.2662207358E+04  1.5482888003E-01  2.0881544502E+00  1.3349917865E-03  1.3227409751E-03  4.4829152417E-01
  1.2759197324E+04  1.5629046174E-01  2.0810449214E+00  1.3614099870E-03  1.3487787234E-03  4.5055800966E-01
  1.2856187291E+04  1.5775922632E-01  2.0740480266E+00  1.3881449675E-03  1.3751246969E-03  4.5280780156E-01
  1.2953177258E+04  1.5923399833E-01  2.0671523608E+00  1.4151980938E-03  1.4017800454E-03  4.5504112278E-01
  1.3050167224E+04  1.6071379624E-01  2.0603489355E+00  1.4425707270E-03  1.4287459222E-03  4.5725819190E-01
  1.3147157191E+04  1.6220180432E-01  2.0536596532E+00  1.4706046995E-03  1.4563577309E-03  4.5945922331E-01
  1.3244147157E+04  1.6369250048E-01  2.0470410179E+00  1.4991475598E-03  1.4844652131E-03  4.6164442739E-01
  1.3341137124E+04  1.6519368893E-01  2.0405503006E+00  1.5280300668E-03  1.5129029101E-03  4.6381401051E-01
  1.3438127090E+04  1.6669771880E-01  2.0341276832E+00  1.5572537489E-03  1.5416715421E-03  4.6596817525E-01
  1.3535117057E+04  1.6820945519E-01  2.0278085610E+00  1.5868201301E-03  1.5707729159E-03  4.6810712042E-01
  1.3632107023E+04  1.6972685472E-01  2.0215754187E+00  1.6167307302E-03  1.6002082223E-03  4.7023104119E-01
  1.3729096990E+04  1.7124890043E-01  2.0154193992E+00  1.6471627651E-03  1.6301508195E-03  4.7234012918E-01
  1.3826086957E+04  1.7277970133E-01  2.0093695245E+00  1.6782495811E-03  1.6607314460E-03  4.7443457256E-01
  1.3923076923E+04  1.7431334156E-01  2.0033799123E+00  1.7096996204E-03  1.6916637699E-03  4.7651455614E-01
  1.4020066890E+04  1.7585604653E-01  1.9974959409E+00  1.7415145523E-03  1.7229499086E-03  4.7858026141E-01
  1.4117056856E+04  1.7740316911E-01  1.9916809627E+00  1.7736960420E-03  1.7545908978E-03  4.8063186669E-01
  1.4214046823E+04  1.7895567357E-01  1.9859412082E+00  1.8062457511E-03  1.7865883235E-03  4.8266954718E-01
  1.4311036789E+04  1.8051630102E-01  1.9802954005E+00  1.8391653369E-03  1.8189439652E-03  4.8469347501E-01
  1.4408026756E+04  1.8207985928E-01  1.9747036153E+00  1.8724564531E-03  1.8516587490E-03  4.8670381936E-01
  1.4505016722E+04  1.8365251233E-01  1.9692105962E+00  1.9061207493E-03  1.8847348241E-03  4.8870074649E-01
  1.4602006689E+04  1.8522964567E-01  1.9637803626E+00  1.9401598714E-03  1.9181731559E-03  4.9068441986E-01
  1.4698996656E+04  1.8681157444E-01  1.9584144324E+00  1.9745754616E-03  1.9519752392E-03  4.9265500013E-01
  1.4795986622E+04  1.8840229659E-01  1.9531409224E+00  2.0093691582E-03  1.9861430033E-03  4.9461264530E-01
  1.4892976589E+04  1.8999603778E-01  1.9479159299E+00  2.0445425959E-03  2.0206772257E-03  4.9655751071E-01
  1.4989966555E+04  1.9159757708E-01  1.9427738868E+00  2.0800974056E-03  2.0555799286E-03  4.9848974914E-01
  1.5086956522E+04  1.9320496801E-01  1.9376988660E+00  2.1162720056E-03  2.0910835152E-03  5.0040951085E-01
  1.5183946488E+04  1.9481541398E-01  1.9326694971E+00  2.1528655482E-03  2.1269912728E-03  5.0231694364E-01
  1.5280936455E+04  1.9643630646E-01  1.9277389397E+00  2.1898527901E-03  2.1632793434E-03  5.0421219292E-01
  1.5377926421E+04  1.9806046782E-01  1.9228532345E+00  2.2272354278E-03  2.1999483102E-03  5.0609540175E-01
  1.5474916388E+04  1.9968981751E-01  1.9180257824E+00  2.2650151545E-03  2.2369999141E-03  5.0796671090E-01
  1.5571906355E+04  2.0132771210E-01  1.9132797256E+00  2.3031936596E-03  2.2744361069E-03  5.0982625867E-01
  1.5668896321E+04  2.0296874587E-01  1.9085747729E+00  2.3417726293E-03  2.3122576395E-03  5.1167418024E-01
  1.5765886288E+04  2.0461690642E-01  1.9039391630E+00  2.3807537462E-03  2.3504665464E-03  5.1351060647E-01
  1.5862876254E+04  2.0627173594E-01  1.8993682304E+00  2.4201386897E-03  2.3890642500E-03  5.1533566608E-01
  1.5959866221E+04  2.0792973918E-01  1.8948360344E+00  2.4599291357E-03  2.4280517142E-03  5.1714948569E-01
  1.6056856187E+04  2.0959644323E-01  1.8903815953E+00  2.5001267569E-03  2.4674312219E-03  5.1895218981E-01
  1.6153846154E+04  2.1126830024E-01  1.8859781557E+00  2.5407332226E-03  2.5072037160E-03  5.2074390097E-01
  1.6250836120E+04  2.1294336511E-01  1.8816112416E+00  2.5817501989E-03  2.5473703484E-03  5.2252473969E-01
  1.6347826087E+04  2.1462833592E-01  1.8773278654E+00  2.6231793486E-03  2.5879336178E-03  5.2429482457E-01
  1.6444816054E+04  2.1631730818E-01  1.8730847795E+00  2.6650223314E-03  2.6288940539E-03  5.2605427231E-01
  1.6541806020E+04  2.1800959131E-01  1.8688766424E+00  2.7072808037E-03  2.6702529748E-03  5.2780319780E-01
  1.6638795987E+04  2.1971247405E-01  1.8647542485E+00  2.7499564187E-03  2.7120130201E-03  5.2954171408E-01
  1.6735785953E+04  2.2141864459E-01  1.8606648291E+00  2.7930508265E-03  2.7541744231E-03  5.3126993247E-01
  1.6832775920E+04  2.2312860288E-01  1.8566115404E+00  2.8365656742E-03  2.7967386814E-03  5.3298796254E-01
  1.6929765886E+04  2.2484872947E-01  1.8526383904E+00  2.8805026055E-03  2.8397083276E-03  5.3469591218E-01
  1.7026755853E+04  2.2657217669E-01  1.8486963675E+00  2.9248632614E-03  2.8830835975E-03  5.3639388764E-01
  1.7123745819E+04  2.2829951239E-01  1.8447891069E+00  2.9696492795E-03  2.9268659915E-03  5.3808199355E-01
  1.7220735786E+04  2.3003695703E-01  1.8409592006E+00  3.0148622947E-03  2.9710580563E-03  5.3976033297E-01
  1.7317725753E+04  2.3177775476E-01  1.8371586889E+00  3.0605039386E-03  3.0156599699E-03  5.4142900740E-01
  1.7414715719E+04  2.3352216290E-01  1.8333890534E+00  3.1065758401E-03  3.0606731646E-03  5.4308811684E-01
  1.7511705686E+04  2.3527699633E-01  1.8296967557E+00  3.1532068833E-03  3.1062238378E-03  5.4473775982E-01
  1.7608695652E+04  2.3703521496E-01  1.8260322262E+00  3.2012130827E-03  3.1531020449E-03  5.4637803339E-01
  1.7705685619E+04  2.3879680662E-01  1.8223951049E+00  3.2496804277E-03  3.2004203545E-03  5.4800903322E-01
  1.7802675585E+04  2.4056868317E-01  1.8188322175E+00  3.2986107856E-03  3.2481817611E-03  5.4963085357E-01
  1.7899665552E+04  2.4234439934E-01  1.8152984764E+00  3.3480060208E-03  3.2963865750E-03  5.5124358734E-01
  1.7996655518E+04  2.4412352059E-01  1.8117906415E+00  3.3978679953E-03  3.3450362841E-03  5.5284732547E-01
  1.8093645485E+04  2.4591186256E-01  1.8083477584E+00  3.4481985681E-03  3.3941337045E-03  5.5444215520E-01
  1.8190635452E+04  2.4770515524E-01  1.8049399201E+00  3.4989995959E-03  3.4436795301E-03  5.5602816228E-01
  1.8287625418E+04  2.4950188485E-01  1.8015565746E+00  3.5502729324E-03  3.4936750025E-03  5.5760543131E-01
  1.8384615385E+04  2.5130637617E-01  1.7982264794E+00  3.6020204291E-03  3.5441226502E-03  5.5917404567E-01
  1.8481605351E+04  2.5311732077E-01  1.7949399402E+00  3.6542439346E-03  3.5950237701E-03  5.6073408759E-01
  1.8578595318E+04  2.5493173395E-01  1.7916765630E+00  3.7069452950E-03  3.6463792477E-03  5.6228563812E-01
  1.8675585284E+04  2.5675205103E-01  1.7884523355E+00  3.7601263538E-03  3.6981911996E-03  5.6382877718E-01
  1.8772575251E+04  2.5858071936E-01  1.7852827539E+00  3.8137889522E-03  3.7504617745E-03  5.6536358361E-01
  1.8869565217E+04  2.6041288772E-01  1.7821350800E+00  3.8679349285E-03  3.8031913782E-03  5.6689013512E-01
  1.8966555184E+04  2.6224869989E-01  1.7790100747E+00  3.9225661187E-03  3.8563815741E-03  5.6840850839E-01
  1.9063545151E+04  2.6409516020E-01  1.7759533528E+00  3.9776843565E-03  3.9100356445E-03  5.6991877905E-01
  1.9160535117E+04  2.6594515177E-01  1.7729173554E+00  4.0332914727E-03  3.9641533746E-03  5.7142102168E-01
  1.9257525084E+04  2.6779866345E-01  1.7699018383E+00  4.0893892958E-03  4.0187362759E-03  5.7291530990E-01
  1.9354515050E+04  2.6966043866E-01  1.7669374492E+00  4.1459796521E-03  4.0737871038E-03  5.7440171630E-01
  1.9451505017E+04  2.7152831796E-01  1.7640093234E+00  4.2030643652E-03  4.1293068413E-03  5.7588031252E-01
  1.9548494983E+04  2.7339974857E-01  1.7611005779E+00  4.2606452564E-03  4.1852963277E-03  5.7735116927E-01
  1.9645484950E+04  2.7527633682E-01  1.7582214254E+00  4.3187241444E-03  4.2417575002E-03  5.7881435631E-01
  1.9742474916E+04  2.7716216488E-01  1.7553975730E+00  4.3773028458E-03  4.2986930071E-03  5.8026994249E-01
  1.9839464883E+04  2.7905157522E-01  1.7525920615E+00  4.4363831748E-03  4.3561028014E-03  5.8171799576E-01
  1.9936454849E+04  2.8094455710E-01  1.7498046832E+00  4.4959669429E-03  4.4139883622E-03  5.8315858320E-01
  2.0033444816E+04  2.8284646015E-01  1.7470692776E+00  4.5561507150E-03  4.4724440321E-03  5.8459177102E-01
  2.0130434783E+04  2.8475391013E-01  1.7443636151E+00  4.6170256004E-03  4.5315563000E-03  5.8601762380E-01
  2.0227424749E+04  2.8666496259E-01  1.7416751174E+00  4.6784153691E-03  4.5911544682E-03  5.8743620345E-01
  2.0324414716E+04  2.8858096479E-01  1.7390121025E+00  4.7403218760E-03  4.6512404550E-03  5.8884757114E-01
  2.0421404682E+04  2.9050652519E-01  1.7364028842E+00  4.8027469735E-03  4.7118172042E-03  5.9025178726E-01
  2.0518394649E+04  2.9243571894E-01  1.7338099159E+00  4.8656925120E-03  4.7728844355E-03  5.9164891149E-01
  2.0615384615E+04  2.9436853566E-01  1.7312330204E+00  4.9291603394E-03  4.8344436402E-03  5.9303900274E-01
  2.0712374582E+04  2.9630919234E-01  1.7286979019E+00  4.9931523016E-03  4.8964976667E-03  5.9442211921E-01
  2.0809364548E+04  2.9825660014E-01  1.7261972195E+00  5.0576702423E-03  4.9590476998E-03  5.9579831840E-01
  2.0906354515E+04  3.0020766190E-01  1.7237117576E+00  5.1227160029E-03  5.0220942361E-03  5.9716765711E-01
  2.1003344482E+04  3.0216236748E-01  1.7212413536E+00  5.1882914229E-03  5.0856387487E-03  5.9853019144E-01
  2.1100334448E+04  3.0412736767E-01  1.7188257083E+00  5.2543983393E-03  5.1496849730E-03  5.9988597684E-01
  2.1197324415E+04  3.0609674444E-01  1.7164286497E+00  5.3210385873E-03  5.2142324247E-03  6.0123506807E-01
  2.1294314381E+04  3.0806979610E-01  1.7140458541E+00  5.3882139998E-03  5.2792823309E-03  6.0257751927E-01
  2.1391304348E+04  3.1004776934E-01  1.7116845848E+00  5.4559264076E-03  5.3448365918E-03  6.0391338391E-01
  2.1488294314E+04  3.1203552835E-01  1.7093730526E+00  5.5241776393E-03  5.4108984263E-03  6.0524271486E-01
  2.1585284281E+04  3.1402699328E-01  1.7070750308E+00  5.5929695216E-03  5.4774671556E-03  6.0656556434E-01
  2.1682274247E+04  3.1602215431E-01  1.7047903804E+00  5.6623038792E-03  5.5445442210E-03  6.0788198400E-01
  2.1779264214E+04  3.1802374537E-01  1.7025348006E+00  5.7321825343E-03  5.6121320855E-03  6.0919202485E-01
  2.1876254181E+04  3.2003368798E-01  1.7003188592E+00  5.8026073076E-03  5.6802329517E-03  6.1049573734E-01
  2.1973244147E+04  3.2204735781E-01  1.6981155856E+00  5.8735800174E-03  5.7488465435E-03  6.1179317132E-01
  2.2070234114E+04  3.2406474526E-01  1.6959248521E+00  5.9451024800E-03  5.8179742840E-03  6.1308437505E-01
  2.2167224080E+04  3.2608959610E-01  1.6937677546E+00  6.0171765098E-03  5.8876190720E-03  6.1436939518E-01
  2.2264214047E+04  3.2812183634E-01  1.6916433330E+00  6.0898039191E-03  5.9577823511E-03  6.1564827789E-01
  2.2361204013E+04  3.3015782537E-01  1.6895307932E+00  6.1629931758E-03  6.0284704876E-03  6.1692106886E-01
  2.2458193980E+04  3.3219755380E-01  1.6874300176E+00  6.2380266254E-03  6.1009097478E-03  6.1818781327E-01
  2.2555183946E+04  3.3424529025E-01  1.6853645722E+00  6.3136443337E-03  6.1738956507E-03  6.1944855580E-01
  2.2652173913E+04  3.3629993968E-01  1.6833278566E+00  6.3898483085E-03  6.2474293706E-03  6.2070334067E-01
  2.2749163880E+04  3.3835835974E-01  1.6813022886E+00  6.4666405558E-03  6.3215111822E-03  6.2195221162E-01
  2.2846153846E+04  3.4042054121E-01  1.6792877600E+00  6.5440230795E-03  6.3961426400E-03  6.2319521190E-01
  2.2943143813E+04  3.4249077323E-01  1.6773074845E+00  6.6219978823E-03  6.4713271749E-03  6.2443238433E-01
  2.3040133779E+04  3.4456794092E-01  1.6753548978E+00  6.7005669647E-03  6.5470659123E-03  6.2566377127E-01
  2.3137123746E+04  3.4664890130E-01  1.6734127722E+00  6.7797323257E-03  6.6233590381E-03  6.2688941463E-01
  2.3234113712E+04  3.4873364535E-01  1.6714810082E+00  6.8594959627E-03  6.7002080884E-03  6.2810935587E-01
  2.3331103679E+04  3.5082596738E-01  1.6695797413E+00  6.9398598711E-03  6.7776163466E-03  6.2932363605E-01
  2.3428093645E+04  3.5292575989E-01  1.6677079250E+00  7.0208260447E-03  6.8555853574E-03  6.3053229577E-01
  2.3525083612E+04  3.5502936736E-01  1.6658459274E+00  7.1023964758E-03  6.9341149831E-03  6.3173537522E-01
  2.3622073579E+04  3.5713678097E-01  1.6639936568E+00  7.1845731548E-03  7.0132067408E-03  6.3293291418E-01
  2.3719063545E+04  3.5925077224E-01  1.6621655339E+00  7.2673580706E-03  7.0928634905E-03  6.3412495201E-01
  2.3816053512E+04  3.6137329354E-01  1.6603713313E+00  7.3507532102E-03  7.1730877508E-03  6.3531152712E-01
  2.3913043478E+04  3.6349965231E-01  1.6585863457E+00  7.4347605591E-03  7.2538787818E-03  6.3649267646E-01
  2.4010033445E+04  3.6562983988E-01  1.6568104925E+00  7.5193821012E-03  7.3352380821E-03  6.3766843661E-01
  2.4107023411E+04  3.6776506473E-01  1.6550499234E+00  7.6046198186E-03  7.4171677653E-03  6.3883884380E-01
  2.4204013378E+04  3.6991041625E-01  1.6533303647E+00  7.6904756920E-03  7.4996719712E-03  6.4000393390E-01
  2.4301003344E+04  3.7205962793E-01  1.6516194588E+00  7.7769517002E-03  7.5827490334E-03  6.4116374244E-01
  2.4397993311E+04  3.7421269124E-01  1.6499171278E+00  7.8640498205E-03  7.6664004319E-03  6.4231830462E-01
  2.4494983278E+04  3.7636959776E-01  1.6482232949E+00  7.9517720288E-03  7.7506276414E-03  6.4346765531E-01
  2.4591973244E+04  3.7853698002E-01  1.6465710648E+00  8.0401202990E-03  7.8354357284E-03  6.4461182902E-01
  2.4688963211E+04  3.8070914359E-01  1.6449314766E+00  8.1290966037E-03  7.9208231681E-03  6.4575085999E-01
  2.4785953177E+04  3.8288518183E-01  1.6432999399E+00  8.2187029138E-03  8.0067909409E-03  6.4688478208E-01
  2.4882943144E+04  3.8506508644E-01  1.6416763838E+00  8.3089411987E-03  8.0933405030E-03  6.4801362888E-01
  2.4979933110E+04  3.8725281635E-01  1.6400801871E+00  8.3998134262E-03  8.1804755598E-03  6.4913743365E-01
  2.5076923077E+04  3.8944803124E-01  1.6385092785E+00  8.4913732469E-03  8.2682464480E-03  6.5025622933E-01
  2.5173913043E+04  3.9164714399E-01  1.6369459299E+00  8.5835854646E-03  8.3566173287E-03  6.5137004858E-01
  2.5270903010E+04  3.9385014648E-01  1.6353900761E+00  8.6764386873E-03  8.4455769714E-03  6.5247892374E-01
  2.5367892977E+04  3.9605774499E-01  1.6338450601E+00  8.7699348850E-03  8.5351272401E-03  6.5358288694E-01
  2.5464882943E+04  3.9827612854E-01  1.6323401207E+00  8.8640760263E-03  8.6252733098E-03  6.5468197232E-01
  2.5561872910E+04  4.0049843348E-01  1.6308422807E+00  8.9588640782E-03  8.7160125811E-03  6.5577621101E-01
  2.5658862876E+04  4.0272465183E-01  1.6293514799E+00  9.0543010062E-03  8.8073464798E-03  6.5686563221E-01
  2.5755852843E+04  4.0495477565E-01  1.6278676588E+00  9.1503887742E-03  8.8992764266E-03  6.5795026489E-01
  2.5852842809E+04  4.0719329659E-01  1.6264114431E+00  9.2471293448E-03  8.9918066632E-03  6.5903013777E-01
  2.5949832776E+04  4.0943891802E-01  1.6249764930E+00  9.3445246789E-03  9.0849378755E-03  6.6010527934E-01
  2.6046822742E+04  4.1168847689E-01  1.6235481552E+00  9.4425767360E-03  9.1786695106E-03  6.6117571788E-01
  2.6143812709E+04  4.1394196540E-01  1.6221263746E+00  9.5412874742E-03  9.2730029707E-03  6.6224148142E-01
  2.6240802676E+04  4.1619939210E-01  1.6207111698E+00  9.6406588499E-03  9.3679396632E-03  6.6330259779E-01
  2.6337792642E+04  4.1846845278E-01  1.6193366339E+00  9.7406928184E-03  9.4634860861E-03  6.6435909457E-01
  2.6434782609E+04  4.2074147530E-01  1.6179683100E+00  9.8413913332E-03  9.5596386575E-03  6.6541099916E-01
  2.6531772575E+04  4.2301845198E-01  1.6166061471E+00  9.9427563464E-03  9.6563987607E-03  6.6645833871E-01
  2.6628762542E+04  4.2529937522E-01  1.6152500952E+00  1.0044789809E-02  9.7537677742E-03  6.6750114018E-01
  2.6725752508E+04  4.2758686814E-01  1.6139114257E+00  1.0147493670E-02  9.8517488893E-03  6.6853943029E-01
  2.6822742475E+04  4.2988347582E-01  1.6126007978E+00  1.0250869877E-02  9.9503453155E-03  6.6957323557E-01
  2.6919732441E+04  4.3218406252E-01  1.6112959592E+00  1.0354920378E-02  1.0049554911E-02  6.7060258234E-01
  2.7016722408E+04  4.3448862078E-01  1.6099968635E+00  1.0459647116E-02  1.0149379035E-02  6.7162749672E-01
  2.7113712375E+04  4.3679714315E-01  1.6087034650E+00  1.0565052035E-02  1.0249819042E-02  6.7264800462E-01
  2.7210702341E+04  4.3911428207E-01  1.6074350744E+00  1.0671137078E-02  1.0350879674E-02  6.7366413173E-01
  2.7307692308E+04  4.4143859897E-01  1.6061853873E+00  1.0777904185E-02  1.0452561328E-02  6.7467590358E-01
  2.7404682274E+04  4.4376691273E-01  1.6049410972E+00  1.0885694622E-02  1.0555182094E-02  6.7568334547E-01
  2.7501672241E+04  4.4609921605E-01  1.6037021620E+00  1.0995620158E-02  1.0659786034E-02  6.7668648251E-01
  2.7598662207E+04  4.4843550165E-01  1.6024685398E+00  1.1106262880E-02  1.0765039015E-02  6.7768533964E-01
  2.7695652174E+04  4.5078183790E-01  1.6012645617E+00  1.1217624922E-02  1.0870947168E-02  6.7867994158E-01
  2.7792642140E+04  4.5313402591E-01  1.6000730377E+00  1.1329708417E-02  1.0977508867E-02  6.7967031287E-01
  2.7889632107E+04  4.5549022922E-01  1.5988865466E+00  1.1442515497E-02  1.1084724191E-02  6.8065647787E-01
  2.7986622074E+04  4.5785044070E-01  1.5977050497E+00  1.1556048292E-02  1.1192594602E-02  6.8163846075E-01
  2.8083612040E+04  4.6021465322E-01  1.5965285089E+00  1.1670308932E-02  1.1301121558E-02  6.8261628549E-01
  2.8180602007E+04  4.6258970955E-01  1.5953834369E+00  1.1785299545E-02  1.1410312034E-02  6.8358997589E-01
  2.8277591973E+04  4.6496993009E-01  1.5942474729E+00  1.1901022257E-02  1.1520163025E-02  6.8455955558E-01
  2.8374581940E+04  4.6735418496E-01  1.5931162031E+00  1.2017479196E-02  1.1630675078E-02  6.8552504791E-01
  2.8471571906E+04  4.6974246717E-01  1.5919895924E+00  1.2134672485E-02  1.1741849629E-02  6.8648647458E-01
  2.8568561873E+04  4.7213476978E-01  1.5908676056E+00  1.2252604249E-02  1.1853688110E-02  6.8744385663E-01
  2.8665551839E+04  4.7453804021E-01  1.5897762666E+00  1.2371276610E-02  1.1966197845E-02  6.8839721510E-01
  2.8762541806E+04  4.7694645414E-01  1.5886934200E+00  1.2490691689E-02  1.2079375450E-02  6.8934657094E-01
  2.8859531773E+04  4.7935892197E-01  1.5876149525E+00  1.2610851607E-02  1.2193221434E-02  6.9029194494E-01
  2.8956521739E+04  4.8177543688E-01  1.5865408318E+00  1.2731758483E-02  1.2307737209E-02  6.9123335779E-01
  2.9053511706E+04  4.8419599207E-01  1.5854710259E+00  1.2853414435E-02  1.2422924181E-02  6.9217083003E-01
  2.9150501672E+04  4.8662694185E-01  1.5844285560E+00  1.2975821580E-02  1.2538789417E-02  6.9310438210E-01
  2.9247491639E+04  4.8906370930E-01  1.5833965320E+00  1.3098982034E-02  1.2655330371E-02  6.9403403428E-01
  2.9344481605E+04  4.9150455078E-01  1.5823685936E+00  1.3222897912E-02  1.2772546902E-02  6.9495980677E-01
  2.9441471572E+04  4.9394945961E-01  1.5813447112E+00  1.3347571327E-02  1.2890440398E-02  6.9588171960E-01
  2.9538461538E+04  4.9639842913E-01  1.5803248555E+00  1.3473004392E-02  1.3009012239E-02  6.9679979272E-01
  2.9635451505E+04  4.9885649457E-01  1.5793266775E+00  1.3599199219E-02  1.3128268513E-02  6.9771404593E-01
  2.9732441472E+04  5.0132177490E-01  1.5783433179E+00  1.3726157918E-02  1.3248208961E-02  6.9862449892E-01
  2.9829431438E+04  5.0379114989E-01  1.5773637703E+00  1.3853882598E-02  1.3368832065E-02  6.9953117126E-01
  2.9926421405E+04  5.0626461301E-01  1.5763880074E+00  1.3982375367E-02  1.3490139189E-02  7.0043408240E-01
  3.0023411371E+04  5.0874215773E-01  1.5754160025E+00  1.4111784468E-02  1.3612267658E-02  7.0133325166E-01
  3.0120401338E+04  5.1122674697E-01  1.5744577998E+00  1.4242430870E-02  1.3735518140E-02  7.0222869827E-01
  3.0217391304E+04  5.1372070088E-01  1.5735210562E+00  1.4373860938E-02  1.3859470135E-02  7.0312044131E-01
  3.0314381271E+04  5.1621877061E-01  1.5725878692E+00  1.4506076834E-02  1.3984119938E-02  7.0400849977E-01
  3.0411371237E+04  5.1872094975E-01  1.5716582139E+00  1.4639080720E-02  1.4109468928E-02  7.0489289251E-01
  3.0508361204E+04  5.2122723193E-01  1.5707320658E+00  1.4772874757E-02  1.4235518477E-02  7.0577363829E-01
  3.0605351171E+04  5.2373772395E-01  1.5698097710E+00  1.4907461104E-02  1.4362270068E-02  7.0665075573E-01
  3.0702341137E+04  5.2626051688E-01  1.5689176729E+00  1.5042841921E-02  1.4489733450E-02  7.0752426337E-01
  3.0799331104E+04  5.2878744732E-01  1.5680288931E+00  1.5179019365E-02  1.4617901694E-02  7.0839417961E-01
  3.0896321070E+04  5.3131850898E-01  1.5671434089E+00  1.5315995593E-02  1.4746776149E-02  7.0926052276E-01
  3.0993311037E+04  5.3385369561E-01  1.5662611977E+00  1.5453772761E-02  1.4876358162E-02  7.1012331101E-01
  3.1090301003E+04  5.3639300101E-01  1.5653822373E+00  1.5592353023E-02  1.5006649073E-02  7.1098256235E-01
  3.1187290970E+04  5.3894123747E-01  1.5645216604E+00  1.5731738534E-02  1.5137655437E-02  7.1183829366E-01
