#[MATERIAL DEFINITION FOR MC-GPU: interaction mean free path and sampling data from PENELOPE 2006]
#[MATERIAL NAME]
# gso                                                           
#[NOMINAL DENSITY (g/cm^3)]
#   6.71000000
#[NUMBER OF DATA VALUES]
#   1495
#[MEAN FREE PATHS (cm) (ie, average distance between interactions)]
#[Energy (eV)     | Rayleigh        | Compton         | Photoelectric   | TOTAL (+pair prod) (cm) | Rayleigh: max cumul prob F^2]
  5.0000000000E+03  3.1805777749E-02  2.7840819451E+00  5.0983350974E-04  5.0169959847E-04  1.2985627620E-01
  5.0969899666E+03  3.2186732970E-02  2.7499167148E+00  5.3587401483E-04  5.2699738730E-04  1.3327389033E-01
  5.1939799331E+03  3.2570355290E-02  2.7171282804E+00  5.6271403355E-04  5.5304461469E-04  1.3669014622E-01
  5.2909698997E+03  3.2956685445E-02  2.6856347840E+00  5.9036241643E-04  5.7984797239E-04  1.4010398705E-01
  5.3879598662E+03  3.3345759087E-02  2.6553604562E+00  6.1882794371E-04  6.0741404522E-04  1.4351442500E-01
  5.4849498328E+03  3.3737606912E-02  2.6262350689E+00  6.4811998067E-04  6.3574994235E-04  1.4692053795E-01
  5.5819397993E+03  3.4132254775E-02  2.5981934458E+00  6.7825433465E-04  6.6486892172E-04  1.5032146694E-01
  5.6789297659E+03  3.4529723782E-02  2.5711750242E+00  7.0923225414E-04  6.9477019554E-04  1.5371632922E-01
  5.7759197324E+03  3.4930030371E-02  2.5451234607E+00  7.4106226289E-04  7.2545994826E-04  1.5710425261E-01
  5.8729096990E+03  3.5333186383E-02  2.5199862778E+00  7.7375282260E-04  7.5694426783E-04  1.6048442022E-01
  5.9698996656E+03  3.5739199076E-02  2.4957145438E+00  8.0731233449E-04  7.8922914745E-04  1.6385606800E-01
  6.0668896321E+03  3.6148069145E-02  2.4722625427E+00  8.4201229735E-04  8.2257163314E-04  1.6721848237E-01
  6.1638795987E+03  3.6559787281E-02  2.4495874466E+00  8.7773813165E-04  8.5685936923E-04  1.7057099788E-01
  6.2608695652E+03  3.6974334812E-02  2.4276491038E+00  9.1438424659E-04  8.9198916718E-04  1.7391299496E-01
  6.3578595318E+03  3.7391689027E-02  2.4064099382E+00  9.5195946638E-04  9.2796714280E-04  1.7724389655E-01
  6.4548494983E+03  3.7812155892E-02  2.3858464184E+00  9.9047256080E-04  9.6479953539E-04  1.8056311502E-01
  6.5518394649E+03  3.8235806072E-02  2.3659276689E+00  1.0299322464E-03  1.0024923785E-03  1.8387007633E-01
  6.6488294314E+03  3.8662277631E-02  2.3466104966E+00  1.0703471876E-03  1.0410513164E-03  1.8716425478E-01
  6.7458193980E+03  3.9091536035E-02  2.3278656751E+00  1.1117259975E-03  1.0804821078E-03  1.9044516145E-01
  6.8428093645E+03  3.9523543287E-02  2.3096657510E+00  1.1540772396E-03  1.1207904207E-03  1.9371234245E-01
  6.9397993311E+03  3.9958257895E-02  2.2919849186E+00  1.1974094279E-03  1.1619818327E-03  1.9696537721E-01
  7.0367892977E+03  4.0395675110E-02  2.2748000552E+00  1.2417876394E-03  1.2041150957E-03  2.0020387690E-01
  7.1337792642E+03  4.0836963297E-02  2.2581219200E+00  1.2872621820E-03  1.2472358339E-03  2.0342748056E-01
  7.2307692308E+03  4.1280908499E-02  2.2418947383E+00  1.3337515717E-03  1.2912637219E-03  2.0663583676E-01
  7.3277591973E+03  4.1727448078E-02  2.2260981202E+00  5.2458203947E-04  5.1794852717E-04  2.0982862063E-01
  7.4247491639E+03  4.2176517137E-02  2.2107128390E+00  5.4148681488E-04  5.3449375356E-04  2.1300553484E-01
  7.5217391304E+03  4.2628779825E-02  2.1957388036E+00  5.5996764344E-04  5.5256824043E-04  2.1616630687E-01
  7.6187290970E+03  4.3084446838E-02  2.1811638596E+00  5.7898427037E-04  5.7115724201E-04  2.1931068774E-01
  7.7157190635E+03  4.3542544453E-02  2.1669487187E+00  5.9871498252E-04  5.9043332337E-04  2.2243845080E-01
  7.8127090301E+03  4.4002999893E-02  2.1530780156E+00  6.1885865531E-04  6.1010280137E-04  2.2554938949E-01
  7.9096989967E+03  4.4466917082E-02  2.1395631893E+00  6.3941863561E-04  6.3016870229E-04  2.2864331132E-01
  8.0066889632E+03  4.4933957592E-02  2.1263824821E+00  4.8528346227E-04  4.7999006121E-04  2.3172004657E-01
  8.1036789298E+03  4.5403234120E-02  2.1135045786E+00  5.0075673346E-04  4.9517804265E-04  2.3477944429E-01
  8.2006688963E+03  4.5875039892E-02  2.1009248196E+00  5.1653021271E-04  5.1065494229E-04  2.3782137050E-01
  8.2976588629E+03  4.6350868669E-02  2.0886625580E+00  5.3260606464E-04  5.2642283637E-04  2.4084570725E-01
  8.3946488294E+03  4.6828781261E-02  2.0766676535E+00  4.7612804636E-04  4.7122882240E-04  2.4385235183E-01
  8.4916387960E+03  4.7308772610E-02  2.0649311138E+00  4.9026160581E-04  4.8511912980E-04  2.4684121588E-01
  8.5886287625E+03  4.7793159320E-02  2.0534878837E+00  5.0464679659E-04  4.9925250976E-04  2.4981222465E-01
  8.6856187291E+03  4.8279466620E-02  2.0422813815E+00  5.1928517574E-04  5.1363006476E-04  2.5276531624E-01
  8.7826086957E+03  4.8767912618E-02  2.0313080647E+00  5.3417829224E-04  5.2825316635E-04  2.5570044090E-01
  8.8795986622E+03  4.9260600905E-02  2.0205974640E+00  5.4932768713E-04  5.4312341170E-04  2.5861756032E-01
  8.9765886288E+03  4.9755037819E-02  2.0100969973E+00  5.6473489362E-04  5.5824184050E-04  2.6151664698E-01
  9.0735785953E+03  5.0252190499E-02  1.9998167367E+00  5.8053694989E-04  5.7374225485E-04  2.6439768294E-01
  9.1705685619E+03  5.0752895040E-02  1.9897634425E+00  5.9664993675E-04  5.8954250772E-04  2.6726066580E-01
  9.2675585284E+03  5.1255163357E-02  1.9798971883E+00  6.1303332011E-04  6.0560254680E-04  2.7010560402E-01
  9.3645484950E+03  5.1761234330E-02  1.9702485569E+00  6.2968873143E-04  6.2192409869E-04  2.7293251406E-01
  9.4615384615E+03  5.2269623211E-02  1.9607869628E+00  6.4661779484E-04  6.3850836269E-04  2.7574141988E-01
  9.5585284281E+03  5.2780097316E-02  1.9515032915E+00  6.6382212720E-04  6.5535669535E-04  2.7853235249E-01
  9.6555183946E+03  5.3294548316E-02  1.9424211692E+00  6.8130333824E-04  6.7247078171E-04  2.8130534950E-01
  9.7525083612E+03  5.3810268449E-02  1.9334935860E+00  6.9906303065E-04  6.8985157269E-04  2.8406045475E-01
  9.8494983278E+03  5.4329967572E-02  1.9247563792E+00  7.1710280020E-04  7.0750088350E-04  2.8679771790E-01
  9.9464882943E+03  5.4851582525E-02  1.9161736231E+00  7.3542423581E-04  7.2541973412E-04  2.8951719405E-01
  1.0043478261E+04  5.5375901918E-02  1.9077523784E+00  7.5413064961E-04  7.4370854978E-04  2.9221894345E-01
  1.0140468227E+04  5.5903338650E-02  1.8994939228E+00  7.7325377073E-04  7.6239793885E-04  2.9490303438E-01
  1.0237458194E+04  5.6432355869E-02  1.8913722719E+00  7.9267261983E-04  7.8136970075E-04  2.9756954453E-01
  1.0334448161E+04  5.6965527864E-02  1.8834194847E+00  8.1238889904E-04  8.0062578574E-04  3.0021855565E-01
  1.0431438127E+04  5.7499547387E-02  1.8755856985E+00  8.3240430404E-04  8.2016698542E-04  3.0285015286E-01
  1.0528428094E+04  5.8038124841E-02  1.8679181530E+00  8.5272052418E-04  8.3999549226E-04  3.0546442440E-01
  1.0625418060E+04  5.8577671091E-02  1.8603643210E+00  8.7333924251E-04  8.6011198772E-04  3.0806146140E-01
  1.0722408027E+04  5.9121097623E-02  1.8529599541E+00  8.9426213590E-04  8.8051851675E-04  3.1064135764E-01
  1.0819397993E+04  5.9666072966E-02  1.8456706020E+00  9.1549087510E-04  9.0121597819E-04  3.1320420938E-01
  1.0916387960E+04  6.0214408339E-02  1.8385168939E+00  9.3702712483E-04  9.2220618798E-04  3.1575011513E-01
  1.1013377926E+04  6.0764712361E-02  1.8314775514E+00  9.5887254386E-04  9.4349021904E-04  3.1827917475E-01
  1.1110367893E+04  6.1318013451E-02  1.8245627948E+00  9.8102878505E-04  9.6506970754E-04  3.2079148664E-01
  1.1207357860E+04  6.1873543091E-02  1.8177599147E+00  1.0035707605E-03  9.8701671422E-04  3.2328716248E-01
  1.1304347826E+04  6.2431863995E-02  1.8110731490E+00  1.0266224002E-03  1.0094508898E-03  3.2576631767E-01
  1.1401337793E+04  6.2992513676E-02  1.8044940335E+00  1.0499995798E-03  1.0321937006E-03  3.2822906848E-01
  1.1498327759E+04  6.3555905806E-02  1.7980249856E+00  1.0737040647E-03  1.0552467341E-03  3.3067553202E-01
  1.1595317726E+04  6.4121567564E-02  1.7916577199E+00  1.0977376149E-03  1.0786113278E-03  3.3310582607E-01
  1.1692307692E+04  6.4690079734E-02  1.7853967499E+00  1.1221019847E-03  1.1022891082E-03  3.3552006896E-01
  1.1789297659E+04  6.5260643347E-02  1.7792301424E+00  1.1467989231E-03  1.1262812947E-03  3.3791837955E-01
  1.1886287625E+04  6.5834321859E-02  1.7731681948E+00  1.1718301737E-03  1.1505896527E-03  3.4030087704E-01
  1.1983277592E+04  6.6409674972E-02  1.7671917222E+00  1.1971974748E-03  1.1752151768E-03  3.4266768096E-01
  1.2080267559E+04  6.6988563686E-02  1.7613202819E+00  1.2229025596E-03  1.2001598860E-03  3.4501891102E-01
  1.2177257525E+04  6.7568591939E-02  1.7555240392E+00  1.2489471559E-03  1.2254244281E-03  3.4735468711E-01
  1.2274247492E+04  6.8152732346E-02  1.7498350909E+00  1.2753329866E-03  1.2510112059E-03  3.4967512916E-01
  1.2371237458E+04  6.8737319501E-02  1.7442097465E+00  1.3020617693E-03  1.2769203826E-03  3.5198035708E-01
  1.2468227425E+04  6.9326750701E-02  1.7386957388E+00  1.3291352169E-03  1.3031548909E-03  3.5427049074E-01
  1.2565217391E+04  6.9916610190E-02  1.7332416882E+00  1.3565986364E-03  1.3297564525E-03  3.5654564988E-01
  1.2662207358E+04  7.0510534585E-02  1.7278863351E+00  1.3844331583E-03  1.3567079559E-03  3.5880595402E-01
  1.2759197324E+04  7.1105752964E-02  1.7225972801E+00  1.4126196136E-03  1.3839896936E-03  3.6105152492E-01
  1.2856187291E+04  7.1703990499E-02  1.7173919347E+00  1.4411597222E-03  1.4116037132E-03  3.6328249002E-01
  1.2953177258E+04  7.2304593116E-02  1.7122614011E+00  1.4700551993E-03  1.4395511563E-03  3.6549897526E-01
  1.3050167224E+04  7.2907017126E-02  1.7071984564E+00  1.4993077555E-03  1.4678331798E-03  3.6770110578E-01
  1.3147157191E+04  7.3513026727E-02  1.7022203266E+00  1.5289190967E-03  1.4964518890E-03  3.6988900586E-01
  1.3244147157E+04  7.4119563733E-02  1.6972931436E+00  1.5588909241E-03  1.5254073652E-03  3.7206279893E-01
  1.3341137124E+04  7.4730947178E-02  1.6924610638E+00  1.5892249344E-03  1.5547028250E-03  3.7422260756E-01
  1.3438127090E+04  7.5342944398E-02  1.6876781521E+00  1.6199228198E-03  1.5843377849E-03  3.7636855343E-01
  1.3535117057E+04  7.5958245424E-02  1.6829713009E+00  1.6509862681E-03  1.6143147833E-03  3.7850075734E-01
  1.3632107023E+04  7.6575720601E-02  1.6783273078E+00  1.6824169625E-03  1.6446346577E-03  3.8061933916E-01
  1.3729096990E+04  7.7194810209E-02  1.6737393624E+00  1.7143552629E-03  1.6754309246E-03  3.8272441784E-01
  1.3826086957E+04  7.7817778994E-02  1.6692292128E+00  1.7469069934E-03  1.7068052249E-03  3.8481611142E-01
  1.3923076923E+04  7.8441367619E-02  1.6647626177E+00  1.7798425524E-03  1.7385362728E-03  3.8689453697E-01
  1.4020066890E+04  7.9069004271E-02  1.6603730457E+00  1.8131637412E-03  1.7706271995E-03  3.8895981065E-01
  1.4117056856E+04  7.9698130855E-02  1.6560335392E+00  1.8468723572E-03  1.8030781415E-03  3.9101204763E-01
  1.4214046823E+04  8.0329279377E-02  1.6517485242E+00  1.8809701936E-03  1.8358907704E-03  3.9305136241E-01
  1.4311036789E+04  8.0963954950E-02  1.6475316356E+00  1.9154590395E-03  1.8690673051E-03  3.9507787187E-01
  1.4408026756E+04  8.1599307384E-02  1.6433538866E+00  1.9503406799E-03  1.9026076005E-03  3.9709169293E-01
  1.4505016722E+04  8.2238719365E-02  1.6392473509E+00  1.9856168959E-03  1.9365149176E-03  3.9909294112E-01
  1.4602006689E+04  8.2879659405E-02  1.6351862646E+00  2.0212894645E-03  1.9707892375E-03  4.0108173074E-01
  1.4698996656E+04  8.3522302270E-02  1.6311715887E+00  2.0573601589E-03  2.0054320191E-03  4.0305817488E-01
  1.4795986622E+04  8.4168836560E-02  1.6272232094E+00  2.0938307481E-03  2.0404459358E-03  4.0502238545E-01
  1.4892976589E+04  8.4816102238E-02  1.6233100919E+00  2.1307029976E-03  2.0758304716E-03  4.0697447317E-01
  1.4989966555E+04  8.5466714101E-02  1.6194562557E+00  2.1679786688E-03  2.1115885719E-03  4.0891454756E-01
  1.5086956522E+04  8.6119607241E-02  1.6156505888E+00  2.2058275031E-03  2.1478802256E-03  4.1084271699E-01
  1.5183946488E+04  8.6773256157E-02  1.6118781668E+00  2.2441076475E-03  2.1845694474E-03  4.1275908870E-01
  1.5280936455E+04  8.7431689746E-02  1.6081757662E+00  2.2828017975E-03  2.2216421128E-03  4.1466376873E-01
  1.5377926421E+04  8.8090996659E-02  1.6045060431E+00  2.3219117571E-03  2.2590970562E-03  4.1655686204E-01
  1.5474916388E+04  8.8752221945E-02  1.6008781916E+00  2.3614393270E-03  2.2969363227E-03  4.1843847243E-01
  1.5571906355E+04  8.9417187423E-02  1.5973081235E+00  2.4013863038E-03  2.3351625487E-03  4.2030872421E-01
  1.5668896321E+04  9.0082959772E-02  1.5937681103E+00  2.4417544808E-03  2.3737750610E-03  4.2216785246E-01
  1.5765886288E+04  9.0751698546E-02  1.5902774445E+00  2.4825456478E-03  2.4127767342E-03  4.2401598363E-01
  1.5862876254E+04  9.1423155120E-02  1.5868329272E+00  2.5237615907E-03  2.4521687651E-03  4.2585322057E-01
  1.5959866221E+04  9.2095441300E-02  1.5834167993E+00  2.5654040924E-03  2.4919510952E-03  4.2767966488E-01
  1.6056856187E+04  9.2771537446E-02  1.5800555755E+00  2.6074749319E-03  2.5321272979E-03  4.2949541689E-01
  1.6153846154E+04  9.3449530847E-02  1.5767310497E+00  2.6499758849E-03  2.5726972765E-03  4.3130057567E-01
  1.6250836120E+04  9.4128376081E-02  1.5734333576E+00  2.6929107157E-03  2.6136633909E-03  4.3309523911E-01
  1.6347826087E+04  9.4811670288E-02  1.5701942712E+00  2.7362812220E-03  2.6550298434E-03  4.3487950386E-01
  1.6444816054E+04  9.5496243144E-02  1.5669845313E+00  2.7800872353E-03  2.6967936090E-03  4.3665346541E-01
  1.6541806020E+04  9.6181726608E-02  1.5638005005E+00  2.8243305182E-03  2.7389556512E-03  4.3841721806E-01
  1.6638795987E+04  9.6872019646E-02  1.5606763208E+00  2.8690128303E-03  2.7815205432E-03  4.4017085499E-01
  1.6735785953E+04  9.7563211569E-02  1.5575764868E+00  2.9141359278E-03  2.8244863056E-03  4.4191446825E-01
  1.6832775920E+04  9.8255571532E-02  1.5545030833E+00  2.9597015635E-03  2.8678544127E-03  4.4364814476E-01
  1.6929765886E+04  9.8952499514E-02  1.5514855297E+00  3.0057114872E-03  2.9116291550E-03  4.4537196059E-01
  1.7026755853E+04  9.9650347180E-02  1.5484910217E+00  3.0521674452E-03  2.9558085935E-03  4.4708600140E-01
  1.7123745819E+04  1.0034941859E-01  1.5455219515E+00  3.0990711809E-03  3.0003942292E-03  4.4879035272E-01
  1.7220735786E+04  1.0105301578E-01  1.5426066405E+00  3.1464244344E-03  3.0453903988E-03  4.5048509908E-01
  1.7317725753E+04  1.0175755301E-01  1.5397131559E+00  3.1942289425E-03  3.0907950404E-03  4.5217032402E-01
  1.7414715719E+04  1.0246316889E-01  1.5368424515E+00  3.2424864391E-03  3.1366094904E-03  4.5384611008E-01
  1.7511705686E+04  1.0317346804E-01  1.5340252636E+00  3.2912689688E-03  3.1829042742E-03  4.5551253886E-01
  1.7608695652E+04  1.0388472716E-01  1.5312287575E+00  3.3410282269E-03  3.2300974908E-03  4.5716969098E-01
  1.7705685619E+04  1.0459694226E-01  1.5284526686E+00  3.3912600237E-03  3.2777168778E-03  4.5881764615E-01
  1.7802675585E+04  1.0531376369E-01  1.5257278301E+00  3.4419662184E-03  3.3257675039E-03  4.6045648313E-01
  1.7899665552E+04  1.0603178787E-01  1.5230245123E+00  3.4931486675E-03  3.3742472352E-03  4.6208627978E-01
  1.7996655518E+04  1.0675078769E-01  1.5203405541E+00  3.5448092245E-03  3.4231571092E-03  4.6370711266E-01
  1.8093645485E+04  1.0747383388E-01  1.5177015501E+00  3.5969497400E-03  3.4725017300E-03  4.6531905751E-01
  1.8190635452E+04  1.0819867201E-01  1.5150878591E+00  3.6495720619E-03  3.5222800182E-03  4.6692219092E-01
  1.8287625418E+04  1.0892450522E-01  1.5124925323E+00  3.7026780349E-03  3.5724923725E-03  4.6851658865E-01
  1.8384615385E+04  1.0965361702E-01  1.5099343331E+00  3.7562695014E-03  3.6231426406E-03  4.7010232552E-01
  1.8481605351E+04  1.1038531617E-01  1.5074069094E+00  3.8103483005E-03  3.6742313802E-03  4.7167947545E-01
  1.8578595318E+04  1.1111802962E-01  1.5048969121E+00  3.8649162689E-03  3.7257580606E-03  4.7324811149E-01
  1.8675585284E+04  1.1185304393E-01  1.5024147177E+00  3.9199752403E-03  3.7777254443E-03  4.7480830581E-01
  1.8772575251E+04  1.1259164927E-01  1.4999703894E+00  3.9755270456E-03  3.8301363830E-03  4.7636012972E-01
  1.8869565217E+04  1.1333128795E-01  1.4975426035E+00  4.0315735133E-03  3.8829890892E-03  4.7790365370E-01
  1.8966555184E+04  1.1407203790E-01  1.4951318273E+00  4.0881164689E-03  3.9362848715E-03  4.7943894737E-01
  1.9063545151E+04  1.1481759278E-01  1.4927675971E+00  4.1451577354E-03  3.9900296116E-03  4.8096607957E-01
  1.9160535117E+04  1.1556419982E-01  1.4904190751E+00  4.2026991328E-03  4.0442198988E-03  4.8248511832E-01
  1.9257525084E+04  1.1631185519E-01  1.4880860782E+00  4.2607424788E-03  4.0988569225E-03  4.8399613084E-01
  1.9354515050E+04  1.1706306084E-01  1.4857883625E+00  4.3192895884E-03  4.1539451763E-03  4.8549918359E-01
  1.9451505017E+04  1.1781667758E-01  1.4835163159E+00  4.3783422738E-03  4.2094844560E-03  4.8699434225E-01
  1.9548494983E+04  1.1857136130E-01  1.4812590187E+00  4.4379023448E-03  4.2654741880E-03  4.8848167174E-01
  1.9645484950E+04  1.1932796057E-01  1.4790230113E+00  4.4979716084E-03  4.3219167138E-03  4.8996123625E-01
  1.9742474916E+04  1.2008862655E-01  1.4768248000E+00  4.5585518692E-03  4.3788162550E-03  4.9143309925E-01
  1.9839464883E+04  1.2085037799E-01  1.4746406047E+00  4.6196449293E-03  4.4361699185E-03  4.9289732346E-01
  1.9936454849E+04  1.2161321113E-01  1.4724702682E+00  4.6812525879E-03  4.4939788537E-03  4.9435397090E-01
  2.0033444816E+04  1.2237994483E-01  1.4703354656E+00  4.7435341842E-03  4.5523934201E-03  4.9580310290E-01
  2.0130434783E+04  1.2314880108E-01  1.4682219254E+00  4.8066399418E-03  4.6115486618E-03  4.9724478047E-01
  2.0227424749E+04  1.2391875736E-01  1.4661215604E+00  4.8702756246E-03  4.6711714111E-03  4.9867906471E-01
  2.0324414716E+04  1.2469052274E-01  1.4640397065E+00  4.9344431069E-03  4.7312639377E-03  5.0010601591E-01
  2.0421404682E+04  1.2546651622E-01  1.4619945854E+00  4.9991442610E-03  4.7918311977E-03  5.0152569361E-01
  2.0518394649E+04  1.2624362786E-01  1.4599619911E+00  5.0643809566E-03  4.8528697091E-03  5.0293815669E-01
  2.0615384615E+04  1.2702185398E-01  1.4579417882E+00  5.1301550609E-03  4.9143806416E-03  5.0434346331E-01
  2.0712374582E+04  1.2780340025E-01  1.4559506332E+00  5.1964684391E-03  4.9763687040E-03  5.0574167094E-01
  2.0809364548E+04  1.2858769666E-01  1.4539837484E+00  5.2633229537E-03  5.0388342721E-03  5.0713283641E-01
  2.0906354515E+04  1.2937312551E-01  1.4520286482E+00  5.3307204651E-03  5.1017759427E-03  5.0851701587E-01
  2.1003344482E+04  1.3015968317E-01  1.4500852081E+00  5.3986628312E-03  5.1651948624E-03  5.0989426481E-01
  2.1100334448E+04  1.3095083193E-01  1.4481793478E+00  5.4671519078E-03  5.2290980371E-03  5.1126463812E-01
  2.1197324415E+04  1.3174349095E-01  1.4462874217E+00  5.5361895484E-03  5.2934815520E-03  5.1262819002E-01
  2.1294314381E+04  1.3253729657E-01  1.4444065872E+00  5.6057776039E-03  5.3583459357E-03  5.1398497413E-01
  2.1391304348E+04  1.3333289647E-01  1.4425416051E+00  5.6759179234E-03  5.4236934584E-03  5.1533504348E-01
  2.1488294314E+04  1.3413281137E-01  1.4407110179E+00  5.7466123535E-03  5.4895297816E-03  5.1667845047E-01
  2.1585284281E+04  1.3493389045E-01  1.4388909822E+00  5.8178627385E-03  5.5558505485E-03  5.1801524693E-01
  2.1682274247E+04  1.3573613017E-01  1.4370813899E+00  5.8896709206E-03  5.6226568670E-03  5.1934548410E-01
  2.1779264214E+04  1.3654094274E-01  1.4352926221E+00  5.9620387398E-03  5.6899524614E-03  5.2066921266E-01
  2.1876254181E+04  1.3734931908E-01  1.4335316646E+00  6.0349680339E-03  5.7577403896E-03  5.2198648272E-01
  2.1973244147E+04  1.3815887349E-01  1.4317806434E+00  6.1084606384E-03  5.8260173840E-03  5.2329734380E-01
  2.2070234114E+04  1.3896960247E-01  1.4300394589E+00  6.1825183868E-03  5.8947845299E-03  5.2460184422E-01
  2.2167224080E+04  1.3978343189E-01  1.4283221595E+00  6.2571431102E-03  5.9640466649E-03  5.2590003276E-01
  2.2264214047E+04  1.4060032289E-01  1.4266280945E+00  6.3323366379E-03  6.0338049287E-03  5.2719195822E-01
  2.2361204013E+04  1.4141840574E-01  1.4249433895E+00  6.4081008098E-03  6.1040568108E-03  5.2847766881E-01
  2.2458193980E+04  1.4223767701E-01  1.4232679525E+00  6.4844399626E-03  6.1748056520E-03  5.2975721222E-01
  2.2555183946E+04  1.4306032156E-01  1.4216175819E+00  6.5613534321E-03  6.2460547294E-03  5.3103063556E-01
  2.2652173913E+04  1.4388577833E-01  1.4199878391E+00  6.6388430392E-03  6.3178040984E-03  5.3229798544E-01
  2.2749163880E+04  1.4471244064E-01  1.4183669159E+00  6.7169106025E-03  6.3900515649E-03  5.3355930793E-01
  2.2846153846E+04  1.4554030508E-01  1.4167547273E+00  6.7955579388E-03  6.4627981704E-03  5.3481464857E-01
  2.2943143813E+04  1.4637155746E-01  1.4151669355E+00  6.8747868625E-03  6.5360496507E-03  5.3606405243E-01
  2.3040133779E+04  1.4720562903E-01  1.4135990991E+00  6.9545991862E-03  6.6098059709E-03  5.3730756403E-01
  2.3137123746E+04  1.4804091970E-01  1.4120395749E+00  7.0349967202E-03  6.6840647678E-03  5.3854522743E-01
  2.3234113712E+04  1.4887742615E-01  1.4104882842E+00  7.1159812730E-03  6.7588270614E-03  5.3977708621E-01
  2.3331103679E+04  1.4971707371E-01  1.4089588971E+00  7.1975546510E-03  6.8340982073E-03  5.4100318344E-01
  2.3428093645E+04  1.5055980704E-01  1.4074506939E+00  7.2797186586E-03  6.9098792427E-03  5.4222356175E-01
  2.3525083612E+04  1.5140377295E-01  1.4059503260E+00  7.3624750981E-03  6.9861670550E-03  5.4343826330E-01
  2.3622073579E+04  1.5224896816E-01  1.4044577208E+00  7.4458257699E-03  7.0629626426E-03  5.4464732979E-01
  2.3719063545E+04  1.5309679321E-01  1.4029827265E+00  7.5297724724E-03  7.1402703081E-03  5.4585080248E-01
  2.3816053512E+04  1.5394823324E-01  1.4015320156E+00  7.6143170020E-03  7.2180935055E-03  5.4704872217E-01
  2.3913043478E+04  1.5480091923E-01  1.4000886917E+00  7.6994611532E-03  7.2964277012E-03  5.4824112923E-01
  2.4010033445E+04  1.5565484794E-01  1.3986526873E+00  7.7852067185E-03  7.3752738726E-03  5.4942806363E-01
  2.4107023411E+04  1.5651062802E-01  1.3972282240E+00  7.8715554884E-03  7.4546345008E-03  5.5060956488E-01
  2.4204013378E+04  1.5737081769E-01  1.3958329873E+00  7.9585092517E-03  7.5345169914E-03  5.5178567210E-01
  2.4301003344E+04  1.5823226659E-01  1.3944447154E+00  8.0460697949E-03  7.6149146241E-03  5.5295642398E-01
  2.4397993311E+04  1.5909497153E-01  1.3930633459E+00  8.1342389029E-03  7.6958283552E-03  5.5412185882E-01
  2.4494983278E+04  1.5995892934E-01  1.3916888171E+00  8.2230183586E-03  7.7772591348E-03  5.5528201451E-01
  2.4591973244E+04  1.6082745996E-01  1.3903440246E+00  8.3124099430E-03  7.8592165761E-03  5.5643692857E-01
  2.4688963211E+04  1.6169771264E-01  1.3890089250E+00  8.4024154352E-03  7.9416943868E-03  5.5758663811E-01
  2.4785953177E+04  1.6256923458E-01  1.3876803346E+00  8.4930366125E-03  8.0246923418E-03  5.5873117988E-01
  2.4882943144E+04  1.6344202264E-01  1.3863581964E+00  8.5842752503E-03  8.1082113705E-03  5.5987059023E-01
  2.4979933110E+04  1.6431804978E-01  1.3850559888E+00  8.6761331220E-03  8.1922577815E-03  5.6100490516E-01
  2.5076923077E+04  1.6519714564E-01  1.3837722644E+00  8.7693168883E-03  8.2774602380E-03  5.6213416030E-01
  2.5173913043E+04  1.6607752388E-01  1.3824946784E+00  8.8633212129E-03  8.3633620673E-03  5.6325839091E-01
  2.5270903010E+04  1.6695918142E-01  1.3812231780E+00  8.9579656847E-03  8.4498017221E-03  5.6437763191E-01
  2.5367892977E+04  1.6784246875E-01  1.3799600974E+00  9.0532521786E-03  8.5367811771E-03  5.6549191783E-01
  2.5464882943E+04  1.6873044860E-01  1.3787259073E+00  9.1491825681E-03  8.6243102406E-03  5.6660128292E-01
  2.5561872910E+04  1.6961972389E-01  1.3774975066E+00  9.2457587247E-03  8.7123803166E-03  5.6770576138E-01
  2.5658862876E+04  1.7051029157E-01  1.3762748462E+00  9.3429825181E-03  8.8009923590E-03  5.6880538721E-01
  2.5755852843E+04  1.7140214862E-01  1.3750578779E+00  9.4408558167E-03  8.8901473151E-03  5.6990019404E-01
  2.5852842809E+04  1.7229750242E-01  1.3738611345E+00  9.5393804868E-03  8.9798527532E-03  5.7099021516E-01
  2.5949832776E+04  1.7319571509E-01  1.3726801418E+00  9.6385583931E-03  9.0701078887E-03  5.7207548351E-01
  2.6046822742E+04  1.7409523317E-01  1.3715045644E+00  9.7383913988E-03  9.1609090531E-03  5.7315603168E-01
  2.6143812709E+04  1.7499605369E-01  1.3703343576E+00  9.8388813653E-03  9.2522571728E-03  5.7423189195E-01
  2.6240802676E+04  1.7589818164E-01  1.3691695285E+00  9.9400301522E-03  9.3441531928E-03  5.7530309623E-01
  2.6337792642E+04  1.7680537029E-01  1.3680342612E+00  1.0041839618E-02  9.4366098808E-03  5.7636967614E-01
  2.6434782609E+04  1.7771387732E-01  1.3669041031E+00  1.0144311618E-02  9.5296165826E-03  5.7743166296E-01
  2.6531772575E+04  1.7862369978E-01  1.3657790126E+00  1.0247448008E-02  9.6231742037E-03  5.7848908765E-01
  2.6628762542E+04  1.7953483477E-01  1.3646589484E+00  1.0351250641E-02  9.7172836436E-03  5.7954198087E-01
  2.6725752508E+04  1.8044855296E-01  1.3635519547E+00  1.0455721368E-02  9.8119499791E-03  5.8059037298E-01
  2.6822742475E+04  1.8136608577E-01  1.3624656394E+00  1.0560862040E-02  9.9071783155E-03  5.8163429400E-01
  2.6919732441E+04  1.8228494695E-01  1.3613841058E+00  1.0666674503E-02  1.0002961458E-02  5.8267377370E-01
  2.7016722408E+04  1.8320513363E-01  1.3603073158E+00  1.0773160606E-02  1.0099300286E-02  5.8370884151E-01
  2.7113712375E+04  1.8412664295E-01  1.3592352317E+00  1.0880322193E-02  1.0196195671E-02  5.8473952661E-01
  2.7210702341E+04  1.8505171121E-01  1.3581817299E+00  1.0988161107E-02  1.0293656208E-02  5.8576585786E-01
  2.7307692308E+04  1.8597964618E-01  1.3571422742E+00  1.1096679191E-02  1.0391680576E-02  5.8678786386E-01
  2.7404682274E+04  1.8690891955E-01  1.3561072953E+00  1.1205878284E-02  1.0490264419E-02  5.8780557292E-01
  2.7501672241E+04  1.8783952850E-01  1.3550767579E+00  1.1315760226E-02  1.0589408589E-02  5.8881901308E-01
  2.7598662207E+04  1.8877147023E-01  1.3540506275E+00  1.1426326853E-02  1.0689113932E-02  5.8982821211E-01
  2.7695652174E+04  1.8970763968E-01  1.3530465046E+00  1.1537580001E-02  1.0789391781E-02  5.9083319752E-01
  2.7792642140E+04  1.9064603306E-01  1.3520519474E+00  1.1649521504E-02  1.0890235951E-02  5.9183399653E-01
  2.7889632107E+04  1.9158577489E-01  1.3510615822E+00  1.1762153195E-02  1.0991644142E-02  5.9283063614E-01
  2.7986622074E+04  1.9252686241E-01  1.3500753769E+00  1.1875476904E-02  1.1093617179E-02  5.9382314306E-01
  2.8083612040E+04  1.9346929286E-01  1.3490932995E+00  1.1989494461E-02  1.1196155882E-02  5.9481154376E-01
  2.8180602007E+04  1.9441630620E-01  1.3481346556E+00  1.2104207693E-02  1.1299273375E-02  5.9579586446E-01
  2.8277591973E+04  1.9536521249E-01  1.3471831562E+00  1.2219618427E-02  1.1402960509E-02  5.9677613113E-01
  2.8374581940E+04  1.9631547730E-01  1.3462355829E+00  1.2335728488E-02  1.1507216087E-02  5.9775236952E-01
  2.8471571906E+04  1.9726709792E-01  1.3452919061E+00  1.2452539699E-02  1.1612040910E-02  5.9872460510E-01
  2.8568561873E+04  1.9822007166E-01  1.3443520967E+00  1.2570053883E-02  1.1717435769E-02  5.9969286314E-01
  2.8665551839E+04  1.9917766346E-01  1.3434352293E+00  1.2688272858E-02  1.1823414447E-02  6.0065716866E-01
  2.8762541806E+04  2.0013713541E-01  1.3425250582E+00  1.2807198444E-02  1.1929967100E-02  6.0161754644E-01
  2.8859531773E+04  2.0109797597E-01  1.3416185646E+00  1.2926832459E-02  1.2037092501E-02  6.0257402106E-01
  2.8956521739E+04  2.0206018248E-01  1.3407157215E+00  1.3047176718E-02  1.2144791423E-02  6.0352661685E-01
  2.9053511706E+04  2.0302375230E-01  1.3398165019E+00  1.3168233036E-02  1.2253064634E-02  6.0447535794E-01
  2.9150501672E+04  2.0399164936E-01  1.3389378908E+00  1.3290003225E-02  1.2361925238E-02  6.0542026821E-01
  2.9247491639E+04  2.0496173798E-01  1.3380674214E+00  1.3412489097E-02  1.2471365363E-02  6.0636137136E-01
  2.9344481605E+04  2.0593320531E-01  1.3372003969E+00  1.3535692463E-02  1.2581382421E-02  6.0729869085E-01
  2.9441471572E+04  2.0690604874E-01  1.3363367925E+00  1.3659615130E-02  1.2691977157E-02  6.0823224995E-01
  2.9538461538E+04  2.0788026568E-01  1.3354765833E+00  1.3784258906E-02  1.2803150314E-02  6.0916207170E-01
  2.9635451505E+04  2.0885818730E-01  1.3346328781E+00  1.3909625596E-02  1.2914912779E-02  6.1008817896E-01
  2.9732441472E+04  2.0983894187E-01  1.3338005787E+00  1.4035717005E-02  1.3027261731E-02  6.1101059437E-01
  2.9829431438E+04  2.1082108526E-01  1.3329715065E+00  1.4162534936E-02  1.3140191680E-02  6.1192934036E-01
  2.9926421405E+04  2.1180461490E-01  1.3321456384E+00  1.4290081190E-02  1.3253703347E-02  6.1284443920E-01
  3.0023411371E+04  2.1278952825E-01  1.3313229519E+00  1.4418572045E-02  1.3367981810E-02  6.1375591293E-01
  3.0120401338E+04  2.1377718698E-01  1.3305109507E+00  1.4548477008E-02  1.3483435309E-02  6.1466378340E-01
  3.0217391304E+04  2.1476865624E-01  1.3297153546E+00  1.4679128813E-02  1.3599494036E-02  6.1556807229E-01
  3.0314381271E+04  2.1576152442E-01  1.3289227816E+00  1.4810529333E-02  1.3716147878E-02  6.1646880108E-01
  3.0411371237E+04  2.1675578902E-01  1.3281332105E+00  1.4942680441E-02  1.3833397571E-02  6.1736599105E-01
  3.0508361204E+04  2.1775144755E-01  1.3273466204E+00  1.5075584009E-02  1.3951243845E-02  6.1825966332E-01
  3.0605351171E+04  2.1874854911E-01  1.3265632689E+00  1.5209241906E-02  1.4069687667E-02  6.1914983881E-01
  3.0702341137E+04  2.1975078302E-01  1.3258029364E+00  1.5343656001E-02  1.4188747421E-02  6.2003653828E-01
  3.0799331104E+04  2.2075442601E-01  1.3250454358E+00  1.5478828160E-02  1.4308406320E-02  6.2091978229E-01
  3.0896321070E+04  2.2175947560E-01  1.3242907477E+00  1.5614760251E-02  1.4428665074E-02  6.2179959124E-01
  3.0993311037E+04  2.2276592934E-01  1.3235388527E+00  1.5751454138E-02  1.4549524387E-02  6.2267598536E-01
  3.1090301003E+04  2.2377378480E-01  1.3227897320E+00  1.5888911683E-02  1.4670984955E-02  6.2354898455E-01
  3.1187290970E+04  2.2478522024E-01  1.3220548005E+00  1.6027134749E-02  1.4793058346E-02  6.2441860940E-01
