#[MATERIAL DEFINITION FOR MC-GPU: interaction mean free path and sampling data from PENELOPE 2006]
#[MATERIAL NAME]
# LaBr                                                          
#[NOMINAL DENSITY (g/cm^3)]
#   5.10000000
#[NUMBER OF DATA VALUES]
#   1495
#[MEAN FREE PATHS (cm) (ie, average distance between interactions)]
#[Energy (eV)     | Rayleigh        | Compton         | Photoelectric   | TOTAL (+pair prod) (cm) | Rayleigh: max cumul prob F^2]
  5.0000000000E+03  4.9101538397E-02  4.2190234710E+00  6.6739655385E-04  6.5834408605E-04  1.5216819362E-01
  5.0969899666E+03  4.9729705058E-02  4.1655801020E+00  7.0259248926E-04  6.9268918696E-04  1.5604047600E-01
  5.1939799331E+03  5.0363004671E-02  4.1141161452E+00  7.3892738758E-04  7.2811370835E-04  1.5990389317E-01
  5.2909698997E+03  5.1001471525E-02  4.0645183410E+00  7.7641575741E-04  7.6462943664E-04  1.6375731095E-01
  5.3879598662E+03  5.1645133374E-02  4.0166817113E+00  8.1507201712E-04  8.0224801304E-04  1.6759967788E-01
  5.4849498328E+03  5.2294011582E-02  3.9705088290E+00  5.3345796357E-04  5.2800081946E-04  1.7143002106E-01
  5.5819397993E+03  5.2948121232E-02  3.9259091626E+00  5.5661279597E-04  5.5074504940E-04  1.7524744202E-01
  5.6789297659E+03  5.3607471231E-02  3.8827984890E+00  5.8186607730E-04  5.7553288190E-04  1.7905110880E-01
  5.7759197324E+03  5.4272064389E-02  3.8410983643E+00  6.0851556603E-04  6.0167408712E-04  1.8284018674E-01
  5.8729096990E+03  5.4941897479E-02  3.8007356474E+00  6.3599097331E-04  6.2860919381E-04  1.8661388284E-01
  5.9698996656E+03  5.5616961201E-02  3.7616420736E+00  5.4767886765E-04  5.4226009987E-04  1.9037147196E-01
  6.0668896321E+03  5.6297235381E-02  3.7237540356E+00  5.7116467209E-04  5.6534226686E-04  1.9411228654E-01
  6.1638795987E+03  5.6982680679E-02  3.6870124988E+00  5.9565041787E-04  5.8939415383E-04  1.9783571350E-01
  6.2608695652E+03  5.7673240016E-02  3.6513625864E+00  5.6396676201E-04  5.5841991580E-04  2.0154119127E-01
  6.3578595318E+03  5.8368851236E-02  3.6167528341E+00  5.8690319499E-04  5.8096724994E-04  2.0522820443E-01
  6.4548494983E+03  5.9069986468E-02  3.5831455902E+00  6.1040252440E-04  6.0405756323E-04  2.0889625932E-01
  6.5518394649E+03  5.9776731733E-02  3.5504973882E+00  6.3446974232E-04  6.2769522196E-04  2.1254490161E-01
  6.6488294314E+03  6.0488477078E-02  3.5187542282E+00  6.5910980848E-04  6.5188447368E-04  2.1617371972E-01
  6.7458193980E+03  6.1205146806E-02  3.4878756554E+00  6.8432765096E-04  6.7662957811E-04  2.1978234101E-01
  6.8428093645E+03  6.1926661446E-02  3.4578235418E+00  7.1012816682E-04  7.0193475407E-04  2.2337042951E-01
  6.9397993311E+03  6.2652937717E-02  3.4285619283E+00  7.3651622273E-04  7.2780417988E-04  2.2693768365E-01
  7.0367892977E+03  6.3383952560E-02  3.4000579437E+00  7.6367007533E-04  7.5441124352E-04  2.3048382859E-01
  7.1337792642E+03  6.4121546179E-02  3.3723116228E+00  7.9172367796E-04  7.8188598466E-04  2.3400861725E-01
  7.2307692308E+03  6.4863772298E-02  3.3452624590E+00  8.2040697453E-04  8.0996378877E-04  2.3751183208E-01
  7.3277591973E+03  6.5610523290E-02  3.3188826495E+00  8.4972533165E-04  8.3864922423E-04  2.4099328260E-01
  7.4247491639E+03  6.6361689155E-02  3.2931457177E+00  8.7968408849E-04  8.6794681902E-04  2.4445280378E-01
  7.5217391304E+03  6.7118309840E-02  3.2680446757E+00  9.1028855727E-04  8.9786126859E-04  2.4789025452E-01
  7.6187290970E+03  6.7880701642E-02  3.2435617440E+00  9.4154402375E-04  9.2839713041E-04  2.5130551619E-01
  7.7157190635E+03  6.8647321093E-02  3.2196511284E+00  9.7345574771E-04  9.5955857285E-04  2.5469849126E-01
  7.8127090301E+03  6.9418049383E-02  3.1962908663E+00  1.0060289634E-03  9.9134997066E-04  2.5806910203E-01
  7.9096989967E+03  7.0194609377E-02  3.1734878991E+00  1.0392688798E-03  1.0237760546E-03  2.6141728934E-01
  8.0066889632E+03  7.0976455553E-02  3.1512151385E+00  1.0732079438E-03  1.0568675159E-03  2.6474301125E-01
  8.1036789298E+03  7.1762194716E-02  3.1294341499E+00  1.1082032978E-03  1.0909694283E-03  2.6804623928E-01
  8.2006688963E+03  7.2552281879E-02  3.1081351709E+00  1.1439020894E-03  1.1257387174E-03  2.7132696565E-01
  8.2976588629E+03  7.3349033125E-02  3.0873368059E+00  1.1803098599E-03  1.1611805755E-03  2.7458519847E-01
  8.3946488294E+03  7.4149421204E-02  3.0669792739E+00  1.2174321278E-03  1.1972988517E-03  2.7782095850E-01
  8.4916387960E+03  7.4953438561E-02  3.0470481480E+00  1.2552743892E-03  1.2340980649E-03  2.8103427835E-01
  8.5886287625E+03  7.5764669215E-02  3.0275818464E+00  1.2938421182E-03  1.2715837209E-03  2.8422520169E-01
  8.6856187291E+03  7.6579267625E-02  3.0085113544E+00  1.3331407670E-03  1.3097592574E-03  2.8739378244E-01
  8.7826086957E+03  7.7397572577E-02  2.9898289585E+00  1.3731757665E-03  1.3486291942E-03  2.9054008414E-01
  8.8795986622E+03  7.8222823224E-02  2.9715689428E+00  1.4139525264E-03  1.3881989569E-03  2.9366417922E-01
  8.9765886288E+03  7.9051163344E-02  2.9536646849E+00  1.4554764356E-03  1.4284717516E-03  2.9676614860E-01
  9.0735785953E+03  7.9884083419E-02  2.9361260922E+00  1.4979172796E-03  1.4696106626E-03  2.9984608489E-01
  9.1705685619E+03  8.0722861259E-02  2.9189606279E+00  1.5411771748E-03  1.5115208480E-03  3.0290409124E-01
  9.2675585284E+03  8.1564438188E-02  2.9021151245E+00  1.5852105187E-03  1.5541564594E-03  3.0594027692E-01
  9.3645484950E+03  8.2412252755E-02  2.8856275574E+00  1.6300228007E-03  1.5975231643E-03  3.0895475664E-01
  9.4615384615E+03  8.3264018363E-02  2.8694569515E+00  1.6756194912E-03  1.6416245289E-03  3.1194765020E-01
  9.5585284281E+03  8.4119379457E-02  2.8535891523E+00  1.7220060415E-03  1.6864647554E-03  3.1491908199E-01
  9.6555183946E+03  8.4981230011E-02  2.8380552685E+00  1.7691878840E-03  1.7320493635E-03  3.1786918067E-01
  9.7525083612E+03  8.5845419438E-02  2.8227901684E+00  1.8171704329E-03  1.7783809448E-03  3.2079807878E-01
  9.8494983278E+03  8.6716094594E-02  2.8078419532E+00  1.8659590840E-03  1.8254655526E-03  3.2370591015E-01
  9.9464882943E+03  8.7590092853E-02  2.7931602921E+00  1.9155592150E-03  1.8733060638E-03  3.2659281396E-01
  1.0043478261E+04  8.8468621046E-02  2.7787536582E+00  1.9661764808E-03  1.9220986485E-03  3.2945894195E-01
  1.0140468227E+04  8.9352305388E-02  2.7646233220E+00  2.0178762713E-03  1.9719047375E-03  3.3230444818E-01
  1.0237458194E+04  9.0238799688E-02  2.7507309752E+00  2.0704229225E-03  2.0224968213E-03  3.3512948848E-01
  1.0334448161E+04  9.1132034119E-02  2.7371215457E+00  2.1238220620E-03  2.0738812935E-03  3.3793422020E-01
  1.0431438127E+04  9.2026958405E-02  2.7237224631E+00  2.1780793005E-03  2.1260599089E-03  3.4071880204E-01
  1.0528428094E+04  9.2929237951E-02  2.7106007231E+00  2.2332002328E-03  2.1790400462E-03  3.4348339383E-01
  1.0625418060E+04  9.3833391721E-02  2.6976797313E+00  2.2891904372E-03  2.2328230253E-03  3.4622815634E-01
  1.0722408027E+04  9.4743865259E-02  2.6850102267E+00  2.3460554762E-03  2.2874156465E-03  3.4895325115E-01
  1.0819397993E+04  9.5657097718E-02  2.6725415409E+00  2.4038008965E-03  2.3428201098E-03  3.5165884044E-01
  1.0916387960E+04  9.6575854697E-02  2.6603027567E+00  2.4624322290E-03  2.3990423077E-03  3.5434508692E-01
  1.1013377926E+04  9.7498010492E-02  2.6482622355E+00  2.5219549895E-03  2.4560851475E-03  3.5701215358E-01
  1.1110367893E+04  9.8425135642E-02  2.6364340657E+00  2.5823746783E-03  2.5139538095E-03  3.5966020368E-01
  1.1207357860E+04  9.9356055128E-02  2.6247990770E+00  2.6437990130E-03  2.5727485027E-03  3.6228940055E-01
  1.1304347826E+04  1.0029162862E-01  2.6133627097E+00  2.7064046299E-03  2.6326356729E-03  3.6489990751E-01
  1.1401337793E+04  1.0123114811E-01  2.6021120097E+00  2.7699381046E-03  2.6933735631E-03  3.6749189199E-01
  1.1498327759E+04  1.0217524570E-01  2.5910498239E+00  2.8344051028E-03  2.7549668841E-03  3.7006552501E-01
  1.1595317726E+04  1.0312319775E-01  2.5801634477E+00  2.8998112763E-03  2.8174193408E-03  3.7262097636E-01
  1.1692307692E+04  1.0407589093E-01  2.5694589193E+00  2.9661622626E-03  2.8807358117E-03  3.7515841488E-01
  1.1789297659E+04  1.0503210454E-01  2.5589180815E+00  3.0334636860E-03  2.9449195342E-03  3.7767800839E-01
  1.1886287625E+04  1.0599346067E-01  2.5485556987E+00  3.1017211566E-03  3.0099759570E-03  3.8017992370E-01
  1.1983277592E+04  1.0695776155E-01  2.5383427035E+00  3.1709402713E-03  3.0759074182E-03  3.8266432652E-01
  1.2080267559E+04  1.0792784396E-01  2.5283078893E+00  3.2411266138E-03  3.1427203999E-03  3.8513138143E-01
  1.2177257525E+04  1.0890005483E-01  2.5184060485E+00  3.3122857543E-03  3.2104158472E-03  3.8758125187E-01
  1.2274247492E+04  1.0987892293E-01  2.5086850910E+00  3.3844232500E-03  3.2790018018E-03  3.9001410008E-01
  1.2371237458E+04  1.1085886370E-01  2.4990786493E+00  3.4575446453E-03  3.3484772572E-03  3.9243008710E-01
  1.2468227425E+04  1.1184657314E-01  2.4896586384E+00  3.5316554717E-03  3.4188524077E-03  3.9482937272E-01
  1.2565217391E+04  1.1283532679E-01  2.4803467186E+00  3.6072535721E-03  3.4905859023E-03  3.9721211547E-01
  1.2662207358E+04  1.1383066478E-01  2.4712015032E+00  3.6841131874E-03  3.5634695193E-03  3.9957847279E-01
  1.2759197324E+04  1.1482836563E-01  2.4621732161E+00  3.7620044268E-03  3.6372823827E-03  4.0192860412E-01
  1.2856187291E+04  1.1583106380E-01  2.4532881991E+00  3.8409331218E-03  3.7120313086E-03  4.0426266881E-01
  1.2953177258E+04  1.1683776172E-01  2.4445324429E+00  3.9209050921E-03  3.7877194368E-03  4.0658082439E-01
  1.3050167224E+04  1.1784763180E-01  2.4358946577E+00  4.0019261455E-03  3.8643499719E-03  4.0888322675E-01
  1.3147157191E+04  1.1886337335E-01  2.4274009480E+00  4.0840020788E-03  3.9419299863E-03  4.1117003012E-01
  1.3244147157E+04  1.1988030730E-01  2.4189989600E+00  4.1671386768E-03  4.0204582940E-03  4.1344138709E-01
  1.3341137124E+04  1.2090505341E-01  2.4107565113E+00  4.2513417134E-03  4.0999465316E-03  4.1569744860E-01
  1.3438127090E+04  1.2193112408E-01  2.4026024102E+00  1.5678385013E-03  1.5469378961E-03  4.1793836397E-01
  1.3535117057E+04  1.2296264973E-01  2.3945780597E+00  1.5939917194E-03  1.5725594858E-03  4.2016428089E-01
  1.3632107023E+04  1.2399789618E-01  2.3866626973E+00  1.6209183765E-03  1.5989309950E-03  4.2237534545E-01
  1.3729096990E+04  1.2503600540E-01  2.3788455897E+00  1.6524172202E-03  1.6297471746E-03  4.2457170214E-01
  1.3826086957E+04  1.2608046348E-01  2.3711602994E+00  1.6840315657E-03  1.6606708845E-03  4.2675349386E-01
  1.3923076923E+04  1.2712625342E-01  2.3635533026E+00  1.7146325483E-03  1.6906038566E-03  4.2892086062E-01
  1.4020066890E+04  1.2817866148E-01  2.3560766620E+00  1.7455708766E-03  1.7208607878E-03  4.3107394346E-01
  1.4117056856E+04  1.2923374310E-01  2.3486880059E+00  1.7768478889E-03  1.7514421182E-03  4.3321288425E-01
  1.4214046823E+04  1.3029232161E-01  2.3413941352E+00  1.8086165729E-03  1.7824964504E-03  4.3533782310E-01
  1.4311036789E+04  1.3135672380E-01  2.3342162071E+00  1.8414041708E-03  1.8145359344E-03  4.3744889834E-01
  1.4408026756E+04  1.3242254395E-01  2.3271085448E+00  1.8745585499E-03  1.8469259191E-03  4.3954624661E-01
  1.4505016722E+04  1.3349502018E-01  2.3201214854E+00  1.9080813006E-03  1.8796688230E-03  4.4163000282E-01
  1.4602006689E+04  1.3457023254E-01  2.3132142299E+00  1.9419740097E-03  1.9127652310E-03  4.4370030024E-01
  1.4698996656E+04  1.3564845346E-01  2.3063881889E+00  1.9762382598E-03  1.9462165524E-03  4.4575727044E-01
  1.4795986622E+04  1.3673308030E-01  2.2996746240E+00  2.0108756302E-03  1.9800248728E-03  4.4780104339E-01
  1.4892976589E+04  1.3781920798E-01  2.2930242753E+00  2.0458876959E-03  2.0141904939E-03  4.4983174745E-01
  1.4989966555E+04  1.3891090281E-01  2.2864751355E+00  2.0812760285E-03  2.0487156516E-03  4.5184950937E-01
  1.5086956522E+04  1.4000650916E-01  2.2800093769E+00  2.1168375230E-03  2.0834030731E-03  4.5385445436E-01
  1.5183946488E+04  1.4110365280E-01  2.2736031608E+00  2.1527486504E-03  2.1184230995E-03  4.5584670608E-01
  1.5280936455E+04  1.4220861940E-01  2.2673149026E+00  2.1890341820E-03  2.1538010273E-03  4.5782638668E-01
  1.5377926421E+04  1.4331530682E-01  2.2610849761E+00  2.2256956026E-03  2.1895366948E-03  4.5979361679E-01
  1.5474916388E+04  1.4442535030E-01  2.2549279379E+00  2.2627343932E-03  2.2256317384E-03  4.6174851557E-01
  1.5571906355E+04  1.4554160265E-01  2.2488690303E+00  2.3001520314E-03  2.2620881232E-03  4.6369120073E-01
  1.5668896321E+04  1.4665947105E-01  2.2428638727E+00  2.3379499910E-03  2.2989059580E-03  4.6562178855E-01
  1.5765886288E+04  1.4778234726E-01  2.2369432065E+00  2.3761297425E-03  2.3360873412E-03  4.6754039386E-01
  1.5862876254E+04  1.4890984155E-01  2.2311017722E+00  2.4146927528E-03  2.3736334262E-03  4.6944713014E-01
  1.5959866221E+04  1.5003898650E-01  2.2253110604E+00  2.4536404853E-03  2.4115446618E-03  4.7134210945E-01
  1.6056856187E+04  1.5117448051E-01  2.2196134538E+00  2.4929744001E-03  2.4498235360E-03  4.7322544272E-01
  1.6153846154E+04  1.5231330866E-01  2.2139796458E+00  2.5326959537E-03  2.4884704710E-03  4.7509724092E-01
  1.6250836120E+04  1.5345382157E-01  2.2083937345E+00  2.5729642170E-03  2.5276383284E-03  4.7695761401E-01
  1.6347826087E+04  1.5460171093E-01  2.2029066338E+00  2.6137838952E-03  2.5673329323E-03  4.7880667050E-01
  1.6444816054E+04  1.5575196075E-01  2.1974712440E+00  2.6550037350E-03  2.6074066556E-03  4.8064451745E-01
  1.6541806020E+04  1.5690398772E-01  2.1920816423E+00  2.6966252611E-03  2.6478605824E-03  4.8247126056E-01
  1.6638795987E+04  1.5806398402E-01  2.1867926595E+00  2.7386499948E-03  2.6886978323E-03  4.8428700409E-01
  1.6735785953E+04  1.5922573929E-01  2.1815470677E+00  2.7810794545E-03  2.7299178245E-03  4.8609185098E-01
  1.6832775920E+04  1.6038968147E-01  2.1763481537E+00  2.8239151553E-03  2.7715219272E-03  4.8788590282E-01
  1.6929765886E+04  1.6156123054E-01  2.1712432464E+00  2.8677839296E-03  2.8141152375E-03  4.8966925989E-01
  1.7026755853E+04  1.6273457113E-01  2.1661793734E+00  2.9121166551E-03  2.8571473051E-03  4.9144202117E-01
  1.7123745819E+04  1.6391018872E-01  2.1611603310E+00  2.9568769897E-03  2.9005830359E-03  4.9320428441E-01
  1.7220735786E+04  1.6509336704E-01  2.1562317708E+00  3.0020666001E-03  2.9444255597E-03  4.9495614606E-01
  1.7317725753E+04  1.6627836897E-01  2.1513420365E+00  3.0476871496E-03  2.9886743702E-03  4.9669770138E-01
  1.7414715719E+04  1.6746541613E-01  2.1464926107E+00  3.0937402990E-03  3.0333308898E-03  4.9842904443E-01
  1.7511705686E+04  1.6866029680E-01  2.1417331532E+00  3.1402417451E-03  3.0784119868E-03  5.0015026807E-01
  1.7608695652E+04  1.6985703274E-01  2.1370104496E+00  3.1872829467E-03  3.1240032249E-03  5.0186146399E-01
  1.7705685619E+04  1.7105561657E-01  2.1323240161E+00  3.2347645100E-03  3.1700087923E-03  5.0356272276E-01
  1.7802675585E+04  1.7226191427E-01  2.1277238583E+00  3.2826881097E-03  3.2164321971E-03  5.0525413380E-01
  1.7899665552E+04  1.7347045704E-01  2.1231616180E+00  3.3310554173E-03  3.2632728378E-03  5.0693578544E-01
  1.7996655518E+04  1.7468087905E-01  2.1186337348E+00  3.3798681019E-03  3.3105319207E-03  5.0860776490E-01
  1.8093645485E+04  1.7589811000E-01  2.1141819032E+00  3.4291278295E-03  3.3582126830E-03  5.1027015836E-01
  1.8190635452E+04  1.7711853126E-01  2.1097740099E+00  3.4788362635E-03  3.4063151224E-03  5.1192305092E-01
  1.8287625418E+04  1.7834086271E-01  2.1053986734E+00  3.5289950642E-03  3.4548400774E-03  5.1356652664E-01
  1.8384615385E+04  1.7956876637E-01  2.1010865888E+00  3.5796058896E-03  3.5037903488E-03  5.1520066858E-01
  1.8481605351E+04  1.8080113446E-01  2.0968272797E+00  3.6306703946E-03  3.5531668635E-03  5.1682555878E-01
  1.8578595318E+04  1.8203544335E-01  2.0925988315E+00  3.6821902317E-03  3.6029699279E-03  5.1844127830E-01
  1.8675585284E+04  1.8327375374E-01  2.0884182789E+00  3.7341670505E-03  3.6532017205E-03  5.2004790722E-01
  1.8772575251E+04  1.8451813374E-01  2.0843021186E+00  3.7866024979E-03  3.7038644689E-03  5.2164552466E-01
  1.8869565217E+04  1.8576448481E-01  2.0802152202E+00  3.8394982182E-03  3.7549577624E-03  5.2323420881E-01
  1.8966555184E+04  1.8701293084E-01  2.0761583230E+00  3.8928558533E-03  3.8064829487E-03  5.2481403693E-01
  1.9063545151E+04  1.8826938461E-01  2.0721801805E+00  3.9466770421E-03  3.8584439720E-03  5.2638508535E-01
  1.9160535117E+04  1.8952783938E-01  2.0682297910E+00  4.0009634210E-03  3.9108394974E-03  5.2794742952E-01
  1.9257525084E+04  1.9078828819E-01  2.0643068219E+00  4.0557166241E-03  3.9636708013E-03  5.2950114400E-01
  1.9354515050E+04  1.9205473144E-01  2.0604440146E+00  4.1109382825E-03  4.0169410339E-03  5.3104630246E-01
  1.9451505017E+04  1.9332534830E-01  2.0566253702E+00  4.1666300252E-03  4.0706506784E-03  5.3258297773E-01
  1.9548494983E+04  1.9459798886E-01  2.0528327436E+00  4.2227934781E-03  4.1248000074E-03  5.3411124179E-01
  1.9645484950E+04  1.9587400785E-01  2.0490770038E+00  4.2794302652E-03  4.1793909453E-03  5.3563116597E-01
  1.9742474916E+04  1.9715684208E-01  2.0453855988E+00  4.3365420076E-03  4.2344264817E-03  5.3714282124E-01
  1.9839464883E+04  1.9844172936E-01  2.0417188857E+00  4.3941303241E-03  4.2899055711E-03  5.3864627669E-01
  1.9936454849E+04  1.9972866293E-01  2.0380765797E+00  4.4521968308E-03  4.3458294587E-03  5.4014160072E-01
  2.0033444816E+04  2.0102214210E-01  2.0344948656E+00  4.5108661859E-03  4.4023189102E-03  5.4162886092E-01
  2.0130434783E+04  2.0231932950E-01  2.0309498568E+00  4.5702558540E-03  4.4594839516E-03  5.4310812404E-01
  2.0227424749E+04  2.0361859231E-01  2.0274280197E+00  4.6301362009E-03  4.5171046497E-03  5.4457945605E-01
  2.0324414716E+04  2.0492106323E-01  2.0239382343E+00  4.6905088967E-03  4.5751828985E-03  5.4604292212E-01
  2.0421404682E+04  2.0623060952E-01  2.0205108547E+00  4.7513756095E-03  4.6337221146E-03  5.4749858663E-01
  2.0518394649E+04  2.0754226010E-01  2.0171054776E+00  4.8127380047E-03  4.6927209265E-03  5.4894651323E-01
  2.0615384615E+04  2.0885600839E-01  2.0137218586E+00  4.8745977456E-03  4.7521806003E-03  5.5038676479E-01
  2.0712374582E+04  2.1017538720E-01  2.0103876666E+00  4.9369564931E-03  4.8121044125E-03  5.5181940345E-01
  2.0809364548E+04  2.1149948431E-01  2.0070949190E+00  4.9998159059E-03  4.8724931759E-03  5.5324449063E-01
  2.0906354515E+04  2.1282570787E-01  2.0038228384E+00  5.0631776403E-03  4.9333466909E-03  5.5466208704E-01
  2.1003344482E+04  2.1415405142E-01  2.0005712000E+00  5.1270433503E-03  4.9946662057E-03  5.5607225268E-01
  2.1100334448E+04  2.1549007319E-01  1.9973829304E+00  5.1914146878E-03  5.0564563042E-03  5.5747504685E-01
  2.1197324415E+04  2.1682882798E-01  1.9942188107E+00  5.2567634604E-03  5.1191612179E-03  5.5887052819E-01
  2.1294314381E+04  2.1816973136E-01  1.9910741138E+00  5.3230786202E-03  5.1827693099E-03  5.6025875466E-01
  2.1391304348E+04  2.1951382478E-01  1.9879566873E+00  5.3899232648E-03  5.2468663995E-03  5.6163978355E-01
  2.1488294314E+04  2.2086516417E-01  1.9848971309E+00  5.4572991920E-03  5.3114564335E-03  5.6301367154E-01
  2.1585284281E+04  2.2221868058E-01  1.9818560303E+00  5.5252081977E-03  5.3765376361E-03  5.6438047462E-01
  2.1682274247E+04  2.2357436770E-01  1.9788331918E+00  5.5936520756E-03  5.4421113492E-03  5.6574024819E-01
  2.1779264214E+04  2.2493450204E-01  1.9758456946E+00  5.6626326173E-03  5.5081804127E-03  5.6709304703E-01
  2.1876254181E+04  2.2630068210E-01  1.9729050105E+00  5.7321516124E-03  5.5747472858E-03  5.6843892528E-01
  2.1973244147E+04  2.2766906116E-01  1.9699816830E+00  5.8022108485E-03  5.6418108004E-03  5.6977793652E-01
  2.2070234114E+04  2.2903963304E-01  1.9670755338E+00  5.8728121113E-03  5.7093722804E-03  5.7111013372E-01
  2.2167224080E+04  2.3041550939E-01  1.9642096116E+00  5.9439571842E-03  5.7774352059E-03  5.7243556925E-01
  2.2264214047E+04  2.3179662831E-01  1.9613828159E+00  6.0156478489E-03  5.8460009319E-03  5.7375429496E-01
  2.2361204013E+04  2.3317996820E-01  1.9585723497E+00  6.0878859549E-03  5.9150687713E-03  5.7506636208E-01
  2.2458193980E+04  2.3456552297E-01  1.9557780483E+00  6.1606867250E-03  5.9846527177E-03  5.7637182131E-01
  2.2555183946E+04  2.3595683082E-01  1.9530257566E+00  6.2340386849E-03  6.0547441424E-03  5.7767072281E-01
  2.2652173913E+04  2.3735298395E-01  1.9503081789E+00  6.3079436105E-03  6.1253437721E-03  5.7896311611E-01
  2.2749163880E+04  2.3875137999E-01  1.9476059695E+00  6.3824032755E-03  6.1964510318E-03  5.8024904999E-01
  2.2846153846E+04  2.4015201296E-01  1.9449189765E+00  6.4574194521E-03  6.2680672115E-03  5.8152857244E-01
  2.2943143813E+04  2.4155843052E-01  1.9422727484E+00  6.5329939101E-03  6.3401963182E-03  5.8280173096E-01
  2.3040133779E+04  2.4296971038E-01  1.9396600071E+00  6.6091284177E-03  6.4128390188E-03  5.8406857254E-01
  2.3137123746E+04  2.4438325508E-01  1.9370617339E+00  6.6858247412E-03  6.4859946294E-03  5.8532914365E-01
  2.3234113712E+04  2.4579905871E-01  1.9344777885E+00  6.7630846448E-03  6.5596644222E-03  5.8658349029E-01
  2.3331103679E+04  2.4722025328E-01  1.9319304052E+00  6.8409098911E-03  6.6338521877E-03  5.8783165794E-01
  2.3428093645E+04  2.4864674961E-01  1.9294183856E+00  6.9193022405E-03  6.7085592092E-03  5.8907369162E-01
  2.3525083612E+04  2.5007553266E-01  1.9269199901E+00  6.9982634519E-03  6.7837843548E-03  5.9030963586E-01
  2.3622073579E+04  2.5150659663E-01  1.9244350892E+00  7.0777952822E-03  6.8595288796E-03  5.9153953472E-01
  2.3719063545E+04  2.5294222491E-01  1.9219796537E+00  7.1578994864E-03  6.9357959640E-03  5.9276343181E-01
  2.3816053512E+04  2.5438402465E-01  1.9195644878E+00  7.2385778177E-03  7.0125882958E-03  5.9398137028E-01
  2.3913043478E+04  2.5582813297E-01  1.9171621540E+00  7.3198320275E-03  7.0899039012E-03  5.9519339284E-01
  2.4010033445E+04  2.5727454416E-01  1.9147725326E+00  7.4016638655E-03  7.1677440176E-03  5.9639954173E-01
  2.4107023411E+04  2.5872425261E-01  1.9124024451E+00  7.4840750794E-03  7.2461107617E-03  5.9759985880E-01
  2.4204013378E+04  2.6018143995E-01  1.9100804933E+00  7.5670674152E-03  7.3250091345E-03  5.9879438543E-01
  2.4301003344E+04  2.6164095768E-01  1.9077706297E+00  7.6506426171E-03  7.4044358656E-03  5.9998316260E-01
  2.4397993311E+04  2.6310280021E-01  1.9054727435E+00  7.7348024277E-03  7.4843921756E-03  6.0116623087E-01
  2.4494983278E+04  2.6456696196E-01  1.9031867254E+00  7.8195485875E-03  7.5648792797E-03  6.0234363039E-01
  2.4591973244E+04  2.6603888177E-01  1.9009495139E+00  7.9048828356E-03  7.6459034847E-03  6.0351540089E-01
  2.4688963211E+04  2.6751389032E-01  1.8987287372E+00  7.9908069090E-03  7.7274617510E-03  6.0468158173E-01
  2.4785953177E+04  2.6899124553E-01  1.8965192468E+00  8.0773225433E-03  7.8095545999E-03  6.0584221185E-01
  2.4882943144E+04  2.7047094193E-01  1.8943209416E+00  8.1644314721E-03  7.8921832296E-03  6.0699732982E-01
  2.4979933110E+04  2.7195621925E-01  1.8921555087E+00  8.2521354274E-03  7.9753520117E-03  6.0814697381E-01
  2.5076923077E+04  2.7344679860E-01  1.8900205960E+00  8.3406018555E-03  8.0592166901E-03  6.0929118164E-01
  2.5173913043E+04  2.7493974645E-01  1.8878963194E+00  8.4297132239E-03  8.1436641217E-03  6.1042999072E-01
  2.5270903010E+04  2.7643505741E-01  1.8857825854E+00  8.5194284243E-03  8.2286554732E-03  6.1156343811E-01
  2.5367892977E+04  2.7793330846E-01  1.8836831347E+00  8.6097492066E-03  8.3141925350E-03  6.1269156026E-01
  2.5464882943E+04  2.7943954469E-01  1.8816308321E+00  8.7006773190E-03  8.4002817385E-03  6.1381439295E-01
  2.5561872910E+04  2.8094817127E-01  1.8795885547E+00  8.7922145080E-03  8.4869186133E-03  6.1493197163E-01
  2.5658862876E+04  2.8245918290E-01  1.8775562158E+00  8.8843625183E-03  8.5741043421E-03  6.1604433142E-01
  2.5755852843E+04  2.8397257433E-01  1.8755337297E+00  8.9771230933E-03  8.6618401028E-03  6.1715150710E-01
  2.5852842809E+04  2.8549199296E-01  1.8735443834E+00  9.0704979746E-03  8.7501310091E-03  6.1825353309E-01
  2.5949832776E+04  2.8701638563E-01  1.8715809850E+00  9.1644889019E-03  8.8389772102E-03  6.1935044351E-01
  2.6046822742E+04  2.8854318534E-01  1.8696269574E+00  9.2590976138E-03  8.9283771365E-03  6.2044227215E-01
  2.6143812709E+04  2.9007238691E-01  1.8676822212E+00  9.3543258469E-03  9.0183319489E-03  6.2152905249E-01
  2.6240802676E+04  2.9160399836E-01  1.8657467804E+00  9.4511819355E-03  9.1097780119E-03  6.2261081767E-01
  2.6337792642E+04  2.9314424223E-01  1.8638593120E+00  9.5489773423E-03  9.2020813399E-03  6.2368760054E-01
  2.6434782609E+04  2.9468691517E-01  1.8619806805E+00  9.6474196194E-03  9.2949627242E-03  6.2475943364E-01
  2.6531772575E+04  2.9623201209E-01  1.8601108122E+00  9.7465106485E-03  9.3884234197E-03  6.2582634921E-01
  2.6628762542E+04  2.9777952790E-01  1.8582496346E+00  9.8462523099E-03  9.4824646764E-03  6.2688837918E-01
  2.6725752508E+04  2.9933157585E-01  1.8564099837E+00  9.9466464826E-03  9.5770902511E-03  6.2794555520E-01
  2.6822742475E+04  3.0089020496E-01  1.8546039903E+00  1.0047695044E-02  9.6723039219E-03  6.2899790862E-01
  2.6919732441E+04  3.0245128017E-01  1.8528062630E+00  1.0149399870E-02  9.7681020790E-03  6.3004547050E-01
  2.7016722408E+04  3.0401479651E-01  1.8510167344E+00  1.0251762836E-02  9.8644859548E-03  6.3108827163E-01
  2.7113712375E+04  3.0558074899E-01  1.8492353377E+00  1.0354785814E-02  9.9614567766E-03  6.3212634251E-01
  2.7210702341E+04  3.0715286947E-01  1.8474841771E+00  1.0458470676E-02  1.0059020432E-02  6.3315971336E-01
  2.7307692308E+04  3.0873000370E-01  1.8457560081E+00  1.0562819294E-02  1.0157176829E-02  6.3418841415E-01
  2.7404682274E+04  3.1030960130E-01  1.8440355743E+00  1.0667878167E-02  1.0255965289E-02  6.3521247454E-01
  2.7501672241E+04  3.1189165737E-01  1.8423228137E+00  1.0773795113E-02  1.0355521806E-02  6.3623192397E-01
  2.7598662207E+04  3.1347616706E-01  1.8406176654E+00  1.0880385226E-02  1.0455674875E-02  6.3724679159E-01
  2.7695652174E+04  3.1506797764E-01  1.8389481117E+00  1.0987650396E-02  1.0556432086E-02  6.3825710657E-01
  2.7792642140E+04  3.1666373499E-01  1.8372943513E+00  1.1095592512E-02  1.0657790400E-02  6.3926289922E-01
  2.7889632107E+04  3.1826197316E-01  1.8356478314E+00  1.1204213460E-02  1.0759749127E-02  6.4026419759E-01
  2.7986622074E+04  3.1986268736E-01  1.8340084956E+00  1.1313515128E-02  1.0862309472E-02  6.4126102903E-01
  2.8083612040E+04  3.2146587283E-01  1.8323762876E+00  1.1423499399E-02  1.0965472636E-02  6.4225342065E-01
  2.8180602007E+04  3.2307697293E-01  1.8307818418E+00  1.1534168157E-02  1.1069247331E-02  6.4324139936E-01
  2.8277591973E+04  3.2469146943E-01  1.8291992897E+00  1.1645523284E-02  1.1173628678E-02  6.4422499183E-01
  2.8374581940E+04  3.2630846442E-01  1.8276235173E+00  1.1757566662E-02  1.1278616645E-02  6.4520422451E-01
  2.8471571906E+04  3.2792795319E-01  1.8260544725E+00  1.1870300168E-02  1.1384212414E-02  6.4617912362E-01
  2.8568561873E+04  3.2954993107E-01  1.8244921039E+00  1.1983725683E-02  1.1490417163E-02  6.4714971518E-01
  2.8665551839E+04  3.3117990212E-01  1.8229666215E+00  1.2097845082E-02  1.1597240044E-02  6.4811602499E-01
  2.8762541806E+04  3.3281325188E-01  1.8214522762E+00  1.2212660241E-02  1.1704675712E-02  6.4907807862E-01
  2.8859531773E+04  3.3444911794E-01  1.8199442805E+00  1.2328173034E-02  1.1812724101E-02  6.5003590147E-01
  2.8956521739E+04  3.3608749572E-01  1.8184425866E+00  1.2444385334E-02  1.1921386371E-02  6.5098951868E-01
  2.9053511706E+04  3.3772838063E-01  1.8169471470E+00  1.2561299014E-02  1.2030663678E-02  6.5193895523E-01
  2.9150501672E+04  3.3937678641E-01  1.8154848114E+00  1.2678915942E-02  1.2140564795E-02  6.5288423587E-01
  2.9247491639E+04  3.4102910149E-01  1.8140358548E+00  1.2797237989E-02  1.2251085552E-02  6.5382538516E-01
  2.9344481605E+04  3.4268395089E-01  1.8125928459E+00  1.2916267023E-02  1.2362225026E-02  6.5476242746E-01
  2.9441471572E+04  3.4434133010E-01  1.8111557409E+00  1.3036004909E-02  1.2473984356E-02  6.5569538694E-01
  2.9538461538E+04  3.4600123464E-01  1.8097244962E+00  1.3156453514E-02  1.2586364676E-02  6.5662428757E-01
  2.9635451505E+04  3.4766762145E-01  1.8083197939E+00  1.3277614702E-02  1.2699373419E-02  6.5754915312E-01
  2.9732441472E+04  3.4933901192E-01  1.8069335768E+00  1.3399490334E-02  1.2813009513E-02  6.5847000718E-01
  2.9829431438E+04  3.5101295488E-01  1.8055529318E+00  1.3522082274E-02  1.2927270218E-02  6.5938687316E-01
  2.9926421405E+04  3.5268944591E-01  1.8041778184E+00  1.3645392381E-02  1.3042156651E-02  6.6029977426E-01
  3.0023411371E+04  3.5436848062E-01  1.8028081968E+00  1.3769466059E-02  1.3157709682E-02  6.6120873353E-01
  3.0120401338E+04  3.5605237806E-01  1.8014558816E+00  1.3894400140E-02  1.3274020916E-02  6.6211377382E-01
  3.0217391304E+04  3.5774295324E-01  1.8001298717E+00  1.4020060654E-02  1.3390970532E-02  6.6301491779E-01
  3.0314381271E+04  3.5943609925E-01  1.7988090825E+00  1.4146449473E-02  1.3508552862E-02  6.6391218793E-01
  3.0411371237E+04  3.6113181176E-01  1.7974934768E+00  1.4273568467E-02  1.3626769009E-02  6.6480560658E-01
  3.0508361204E+04  3.6283008644E-01  1.7961830179E+00  1.4401419506E-02  1.3745620073E-02  6.6569519586E-01
  3.0605351171E+04  3.6453100718E-01  1.7948781066E+00  1.4530004458E-02  1.3865107300E-02  6.6658097776E-01
  3.0702341137E+04  3.6624087766E-01  1.7936098236E+00  1.4659325190E-02  1.3985242875E-02  6.6746297407E-01
  3.0799331104E+04  3.6795333748E-01  1.7923464327E+00  1.4789383568E-02  1.4106016904E-02  6.6834120643E-01
  3.0896321070E+04  3.6966838238E-01  1.7910878998E+00  1.4920181457E-02  1.4227430468E-02  6.6921569631E-01
  3.0993311037E+04  3.7138600814E-01  1.7898341911E+00  1.5051720720E-02  1.4349484646E-02  6.7008646500E-01
  3.1090301003E+04  3.7310621054E-01  1.7885852731E+00  1.5184003219E-02  1.4472180507E-02  6.7095353366E-01
  3.1187290970E+04  3.7483272295E-01  1.7873590420E+00  1.5317030816E-02  1.4595525981E-02  6.7181692325E-01
