#[MATERIAL DEFINITION FOR MC-GPU: interaction mean free path and sampling data from PENELOPE 2006]
#[MATERIAL NAME]
# lso                                                           
#[NOMINAL DENSITY (g/cm^3)]
#   7.40000000
#[NUMBER OF DATA VALUES]
#   1495
#[MEAN FREE PATHS (cm) (ie, average distance between interactions)]
#[Energy (eV)     | Rayleigh        | Compton         | Photoelectric   | TOTAL (+pair prod) (cm) | Rayleigh: max cumul prob F^2]
  5.0000000000E+03  2.3962018535E-02  2.4708474495E+00  3.4255875044E-04  3.3768442915E-04  1.2675631345E-01
  5.0969899666E+03  2.4230698803E-02  2.4433395222E+00  3.5970109956E-04  3.5438808942E-04  1.3020313407E-01
  5.1939799331E+03  2.4501832626E-02  2.4168220991E+00  3.7735266044E-04  3.7157206432E-04  1.3364910876E-01
  5.2909698997E+03  2.4775441599E-02  2.3912418355E+00  3.9551858165E-04  3.8924031385E-04  1.3709297206E-01
  5.3879598662E+03  2.5051543821E-02  2.3665490661E+00  4.1420396616E-04  4.0739673583E-04  1.4053352827E-01
  5.4849498328E+03  2.5330153961E-02  2.3426974914E+00  4.3342754207E-04  4.2605837609E-04  1.4396964892E-01
  5.5819397993E+03  2.5611283310E-02  2.3196438951E+00  4.5334554611E-04  4.4537491787E-04  1.4740026935E-01
  5.6789297659E+03  2.5894939817E-02  2.2973478904E+00  4.7381092914E-04  4.6520296436E-04  1.5082435475E-01
  5.7759197324E+03  2.6181128127E-02  2.2757716905E+00  4.9482896018E-04  4.8554645358E-04  1.5424090561E-01
  5.8729096990E+03  2.6469849600E-02  2.2548799015E+00  5.1640486771E-04  5.0640926577E-04  1.5764898268E-01
  5.9698996656E+03  2.6761102278E-02  2.2346393362E+00  5.3854384061E-04  5.2779522445E-04  1.6104770207E-01
  6.0668896321E+03  2.7054878340E-02  2.2150189201E+00  5.6138844409E-04  5.4983991662E-04  1.6443623290E-01
  6.1638795987E+03  2.7351159734E-02  2.1959896576E+00  5.8487942362E-04  5.7248488479E-04  1.6781379231E-01
  6.2608695652E+03  2.7649918955E-02  2.1775244494E+00  6.0896236634E-04  5.9567658751E-04  1.7117963166E-01
  6.3578595318E+03  2.7951125725E-02  2.1595977610E+00  6.3364263386E-04  6.1941887373E-04  1.7453304573E-01
  6.4548494983E+03  2.8255025692E-02  2.1421927692E+00  6.5892555210E-04  6.4371568124E-04  1.7787337410E-01
  6.5518394649E+03  2.8561666656E-02  2.1252883939E+00  6.8481641207E-04  6.6857081694E-04  1.8119999919E-01
  6.6488294314E+03  2.8870735800E-02  2.1088556321E+00  7.1132047063E-04  6.9398783620E-04  1.8451234432E-01
  6.7458193980E+03  2.9182195596E-02  2.0928740463E+00  7.3844295120E-04  7.1997037737E-04  1.8780987190E-01
  6.8428093645E+03  2.9496006325E-02  2.0773242777E+00  7.6618904445E-04  7.4652202533E-04  1.9109208160E-01
  6.9397993311E+03  2.9812126021E-02  2.0621879741E+00  7.9456390898E-04  7.7364631174E-04  1.9435850871E-01
  7.0367892977E+03  3.0130543844E-02  2.0474485037E+00  8.2367194870E-04  8.0144072934E-04  1.9760872233E-01
  7.1337792642E+03  3.0452220095E-02  2.0331125384E+00  8.5359189907E-04  8.2997869328E-04  2.0084231842E-01
  7.2307692308E+03  3.0776138476E-02  2.0191415512E+00  8.8417133979E-04  8.5911356288E-04  2.0405892915E-01
  7.3277591973E+03  3.1102240458E-02  2.0055205599E+00  9.1541563259E-04  8.8884890429E-04  2.0725822174E-01
  7.4247491639E+03  3.1430466380E-02  1.9922353067E+00  9.4733010992E-04  9.1918822882E-04  2.1043989072E-01
  7.5217391304E+03  3.1761356609E-02  1.9792853017E+00  9.7992007546E-04  9.5013553398E-04  2.1360365656E-01
  7.6187290970E+03  3.2095075091E-02  1.9666619457E+00  1.0131908047E-03  9.8169450799E-04  2.1674926439E-01
  7.7157190635E+03  3.2430815088E-02  1.9543364517E+00  1.0471475453E-03  1.0138678731E-03  2.1987648276E-01
  7.8127090301E+03  3.2768512777E-02  1.9422970158E+00  1.0817955179E-03  1.0466589369E-03  2.2298510240E-01
  7.9096989967E+03  3.3109065984E-02  1.9305521958E+00  1.1171399161E-03  1.0800719834E-03  2.2607493535E-01
  8.0066889632E+03  3.3452189642E-02  1.9190860249E+00  1.1532033692E-03  1.1141263961E-03  2.2914582057E-01
  8.1036789298E+03  3.3797154637E-02  1.9078743638E+00  1.1902162640E-03  1.1490345135E-03  2.3219762314E-01
  8.2006688963E+03  3.4144196725E-02  1.8969133423E+00  1.2279542337E-03  1.1845852423E-03  2.3523022565E-01
  8.2976588629E+03  3.4494522918E-02  1.8862181664E+00  1.2664226218E-03  1.2207834624E-03  2.3824352692E-01
  8.3946488294E+03  3.4846551572E-02  1.8757495438E+00  1.3056267471E-03  1.2576306012E-03  2.4123744105E-01
  8.4916387960E+03  3.5200277112E-02  1.8655000476E+00  1.3455719043E-03  1.2951298768E-03  2.4421189661E-01
  8.5886287625E+03  3.5557567658E-02  1.8554976488E+00  1.3862633643E-03  1.3332871176E-03  2.4716683583E-01
  8.6856187291E+03  3.5916416101E-02  1.8456972558E+00  1.4277063744E-03  1.3721028200E-03  2.5010220915E-01
  8.7826086957E+03  3.6276997733E-02  1.8360957644E+00  1.4699061590E-03  1.4115803383E-03  2.5301798458E-01
  8.8795986622E+03  3.6641000495E-02  1.8267174037E+00  1.5128679196E-03  1.4517254184E-03  2.5591416125E-01
  8.9765886288E+03  3.7006412850E-02  1.8175194434E+00  1.5565968355E-03  1.4925380935E-03  2.5879074870E-01
  9.0735785953E+03  3.7374010532E-02  1.8085100526E+00  1.6012599467E-03  1.5341712330E-03  2.6164776563E-01
  9.1705685619E+03  3.7744457988E-02  1.7996952783E+00  1.6467605272E-03  1.5765350015E-03  2.6448523937E-01
  9.2675585284E+03  3.8116160311E-02  1.7910419280E+00  6.5440747549E-04  6.4313072799E-04  2.6730320534E-01
  9.3645484950E+03  3.8490906333E-02  1.7825759193E+00  6.7192574281E-04  6.6015278867E-04  2.7010170651E-01
  9.4615384615E+03  3.8867504228E-02  1.7742718518E+00  6.8972488446E-04  6.7743999936E-04  2.7288079296E-01
  9.5585284281E+03  3.9245768022E-02  1.7661219169E+00  7.0780644876E-04  6.9499354864E-04  2.7564052139E-01
  9.6555183946E+03  3.9627201046E-02  1.7581470040E+00  7.2652833824E-04  7.1315852931E-04  2.7838095471E-01
  9.7525083612E+03  4.0009644674E-02  1.7503065612E+00  7.4604036957E-04  7.3207763773E-04  2.8110216160E-01
  9.8494983278E+03  4.0395252372E-02  1.7426322043E+00  7.6587535213E-04  7.5130084293E-04  2.8380421618E-01
  9.9464882943E+03  4.0782380328E-02  1.7350928107E+00  7.8603536801E-04  7.7082928170E-04  2.8648719756E-01
  1.0043478261E+04  4.1171654259E-02  1.7276947384E+00  8.0668694170E-04  7.9082289557E-04  2.8915119718E-01
  1.0140468227E+04  4.1563396958E-02  1.7204395792E+00  8.2788133092E-04  8.1133041532E-04  2.9179632318E-01
  1.0237458194E+04  4.1956391092E-02  1.7133041143E+00  8.4942268664E-04  8.3216267490E-04  2.9442268635E-01
  1.0334448161E+04  4.2352669648E-02  1.7063174671E+00  8.7131331757E-04  8.5332234115E-04  2.9703040019E-01
  1.0431438127E+04  4.2749617438E-02  1.6994347807E+00  6.5132502387E-04  6.4130838384E-04  2.9961958073E-01
  1.0528428094E+04  4.3150161857E-02  1.6926990123E+00  6.6714611186E-04  6.5673349370E-04  3.0219034620E-01
  1.0625418060E+04  4.3551468999E-02  1.6860627135E+00  6.8320098353E-04  6.7238075429E-04  3.0474281693E-01
  1.0722408027E+04  4.3955832457E-02  1.6795585532E+00  6.9949090937E-04  6.8825177995E-04  3.0727711510E-01
  1.0819397993E+04  4.4361413467E-02  1.6731553455E+00  7.1601715509E-04  7.0434719000E-04  3.0979336453E-01
  1.0916387960E+04  4.4769636259E-02  1.6668720809E+00  6.3423612280E-04  6.2514208542E-04  3.1229169056E-01
  1.1013377926E+04  4.5179404095E-02  1.6606894966E+00  6.4875230277E-04  6.3932222169E-04  3.1477221985E-01
  1.1110367893E+04  4.5591524198E-02  1.6546171043E+00  6.6346894291E-04  6.5369396758E-04  3.1723508023E-01
  1.1207357860E+04  4.6005390373E-02  1.6486434379E+00  6.7838739760E-04  6.6825840031E-04  3.1968040418E-01
  1.1304347826E+04  4.6421443525E-02  1.6427725281E+00  6.9350925988E-04  6.8301704310E-04  3.2210833419E-01
  1.1401337793E+04  4.6839318210E-02  1.6369967765E+00  7.0883454731E-04  6.9796971862E-04  3.2451901322E-01
  1.1498327759E+04  4.7259337978E-02  1.6313185429E+00  7.2436422865E-04  7.1311732250E-04  3.2691258420E-01
  1.1595317726E+04  4.7681130117E-02  1.6257303507E+00  7.4009926899E-04  7.2846058902E-04  3.2928918990E-01
  1.1692307692E+04  4.8105147965E-02  1.6202365254E+00  7.5604062978E-04  7.4400043945E-04  3.3164897287E-01
  1.1789297659E+04  4.8530765379E-02  1.6148261355E+00  7.7218926891E-04  7.5973753365E-04  3.3399207540E-01
  1.1886287625E+04  4.8958810730E-02  1.6095089477E+00  7.8854614070E-04  7.7567288200E-04  3.3631863940E-01
  1.1983277592E+04  4.9388160235E-02  1.6042671563E+00  8.0511219599E-04  7.9180700251E-04  3.3862880638E-01
  1.2080267559E+04  4.9820260523E-02  1.5991192951E+00  8.2188838216E-04  8.0814106677E-04  3.4092271736E-01
  1.2177257525E+04  5.0253248040E-02  1.5940374109E+00  8.3887564317E-04  8.2467537474E-04  3.4320051284E-01
  1.2274247492E+04  5.0689428768E-02  1.5890519912E+00  8.5607491960E-04  8.4141134011E-04  3.4546233536E-01
  1.2371237458E+04  5.1125959438E-02  1.5841217982E+00  8.7348714870E-04  8.5834895961E-04  3.4770833271E-01
  1.2468227425E+04  5.1566244202E-02  1.5792923294E+00  8.9111326442E-04  8.7548997917E-04  3.4993865194E-01
  1.2565217391E+04  5.2006864828E-02  1.5745148366E+00  9.0909819526E-04  8.9297312502E-04  3.5215343891E-01
  1.2662207358E+04  5.2450632376E-02  1.5698264060E+00  9.2737478233E-04  9.1073415974E-04  3.5435283831E-01
  1.2759197324E+04  5.2895405153E-02  1.5651962171E+00  9.4587499812E-04  9.2870664370E-04  3.5653699360E-01
  1.2856187291E+04  5.3342515242E-02  1.5606410601E+00  9.6459984571E-04  9.4689181996E-04  3.5870604706E-01
  1.2953177258E+04  5.3791457611E-02  1.5561525233E+00  9.8355032500E-04  9.6529036391E-04  3.6086013969E-01
  1.3050167224E+04  5.4241811619E-02  1.5517238243E+00  1.0027274328E-03  9.8390296103E-04  3.6299941131E-01
  1.3147157191E+04  5.4694939176E-02  1.5473715946E+00  1.0221321627E-03  1.0027308895E-03  3.6512400045E-01
  1.3244147157E+04  5.5148479797E-02  1.5430634276E+00  1.0417655055E-03  1.0217741644E-03  3.6723404586E-01
  1.3341137124E+04  5.5605765008E-02  1.5388419026E+00  1.0616284486E-03  1.0410347561E-03  3.6932968928E-01
  1.3438127090E+04  5.6063530139E-02  1.5346629186E+00  1.0817219766E-03  1.0605123297E-03  3.7141107143E-01
  1.3535117057E+04  5.6523848629E-02  1.5305525081E+00  1.1020470712E-03  1.0802084321E-03  3.7347833142E-01
  1.3632107023E+04  5.6985849944E-02  1.5264980289E+00  1.1226047110E-03  1.1001235523E-03  3.7553160681E-01
  1.3729096990E+04  5.7449102096E-02  1.5224930227E+00  1.1434787762E-03  1.1203379022E-03  3.7757103361E-01
  1.3826086957E+04  5.7915349630E-02  1.5185586121E+00  1.1647323800E-03  1.1409124742E-03  3.7959674629E-01
  1.3923076923E+04  5.8382082177E-02  1.5146617661E+00  1.1862281756E-03  1.1617142348E-03  3.8160887777E-01
  1.4020066890E+04  5.8851938352E-02  1.5108350205E+00  1.2079672052E-03  1.1827450884E-03  3.8360755948E-01
  1.4117056856E+04  5.9322949459E-02  1.5070523218E+00  1.2299505081E-03  1.2040050878E-03  3.8559292162E-01
  1.4214046823E+04  5.9795524170E-02  1.5033180733E+00  1.2521791208E-03  1.2254952352E-03  3.8756509574E-01
  1.4311036789E+04  6.0270820237E-02  1.4996456131E+00  1.2746540769E-03  1.2472168695E-03  3.8952421317E-01
  1.4408026756E+04  6.0746645664E-02  1.4960068391E+00  1.2973764075E-03  1.2691698739E-03  3.9147040358E-01
  1.4505016722E+04  6.1225600117E-02  1.4924330892E+00  1.3203471408E-03  1.2913562280E-03  3.9340379494E-01
  1.4602006689E+04  6.1705738323E-02  1.4888993313E+00  1.3435673024E-03  1.3137758946E-03  3.9532451361E-01
  1.4698996656E+04  6.2187193982E-02  1.4854065976E+00  1.3670379153E-03  1.3364297455E-03  3.9723268435E-01
  1.4795986622E+04  6.2671647911E-02  1.4819743966E+00  1.3907599999E-03  1.3593193969E-03  3.9912843030E-01
  1.4892976589E+04  6.3156673569E-02  1.4785724738E+00  1.4147345737E-03  1.3824445106E-03  4.0101187307E-01
  1.4989966555E+04  6.3644277241E-02  1.4752244139E+00  1.4389626520E-03  1.4058068684E-03  4.0288312152E-01
  1.5086956522E+04  6.4133642058E-02  1.4719194114E+00  1.4635993169E-03  1.4295538727E-03  4.0474228059E-01
  1.5183946488E+04  6.4623597543E-02  1.4686429213E+00  1.4885137556E-03  1.4535598212E-03  4.0658948716E-01
  1.5280936455E+04  6.5117231434E-02  1.4654308313E+00  1.5136894897E-03  1.4778104147E-03  4.0842487686E-01
  1.5377926421E+04  6.5611546330E-02  1.4622468303E+00  1.5391275734E-03  1.5023049394E-03  4.1024858311E-01
  1.5474916388E+04  6.6107341897E-02  1.4590998425E+00  1.5648290584E-03  1.5270446375E-03  4.1206073710E-01
  1.5571906355E+04  6.6606012571E-02  1.4560052895E+00  1.5907949940E-03  1.5520311088E-03  4.1386146790E-01
  1.5668896321E+04  6.7105313511E-02  1.4529364534E+00  1.6170264270E-03  1.5772639450E-03  4.1565090247E-01
  1.5765886288E+04  6.7606895102E-02  1.4499118454E+00  1.6435244018E-03  1.6027448892E-03  4.1742917217E-01
  1.5862876254E+04  6.8110567538E-02  1.4469284560E+00  1.6702899605E-03  1.6284746679E-03  4.1919644061E-01
  1.5959866221E+04  6.8614887821E-02  1.4439693350E+00  1.6973241428E-03  1.6544532501E-03  4.2095282531E-01
  1.6056856187E+04  6.9122130344E-02  1.4410596780E+00  1.7246279860E-03  1.6806827969E-03  4.2269843276E-01
  1.6153846154E+04  6.9630835674E-02  1.4381822587E+00  1.7522025251E-03  1.7071632561E-03  4.2443336802E-01
  1.6250836120E+04  7.0140206009E-02  1.4353277582E+00  1.7800496783E-03  1.7338957675E-03  4.2615773469E-01
  1.6347826087E+04  7.0652982374E-02  1.4325260923E+00  1.8081704874E-03  1.7608828600E-03  4.2787163499E-01
  1.6444816054E+04  7.1166749196E-02  1.4297497842E+00  1.8365651200E-03  1.7881230050E-03  4.2957516973E-01
  1.6541806020E+04  7.1681225954E-02  1.4269954437E+00  1.8652346022E-03  1.8156167924E-03  4.3126843837E-01
  1.6638795987E+04  7.2199379166E-02  1.4242949330E+00  1.8941799579E-03  1.8433669718E-03  4.3295153907E-01
  1.6735785953E+04  7.2718233614E-02  1.4216151844E+00  1.9234022087E-03  1.8713723725E-03  4.3462456863E-01
  1.6832775920E+04  7.3237993712E-02  1.4189581504E+00  1.9529023741E-03  1.8996338909E-03  4.3628762261E-01
  1.6929765886E+04  7.3761242320E-02  1.4163510500E+00  1.9826814714E-03  1.9281541010E-03  4.3794079528E-01
  1.7026755853E+04  7.4285208128E-02  1.4137635921E+00  2.0127405157E-03  1.9569318640E-03  4.3958417969E-01
  1.7123745819E+04  7.4810121695E-02  1.4111979902E+00  2.0430805199E-03  1.9859680925E-03  4.4121786766E-01
  1.7220735786E+04  7.5338487463E-02  1.4086802202E+00  2.0737024950E-03  2.0152653813E-03  4.4284194982E-01
  1.7317725753E+04  7.5867586023E-02  1.4061810451E+00  2.1046074496E-03  2.0448225267E-03  4.4445651364E-01
  1.7414715719E+04  7.6397522284E-02  1.4037013496E+00  2.1357963903E-03  2.0746403436E-03  4.4606164776E-01
  1.7511705686E+04  7.6931025802E-02  1.4012690822E+00  2.1673170250E-03  2.1047657206E-03  4.4765744284E-01
  1.7608695652E+04  7.7465277348E-02  1.3988544286E+00  2.1994691058E-03  2.1354788345E-03  4.4924398827E-01
  1.7705685619E+04  7.8000273843E-02  1.3964571653E+00  2.2319174958E-03  2.1664632303E-03  4.5082137219E-01
  1.7802675585E+04  7.8538776229E-02  1.3941051309E+00  2.2646632787E-03  2.1977219284E-03  4.5238968152E-01
  1.7899665552E+04  7.9078210398E-02  1.3917715178E+00  2.2977075362E-03  2.2292537029E-03  4.5394900196E-01
  1.7996655518E+04  7.9618404522E-02  1.3894543900E+00  2.3310513480E-03  2.2610591997E-03  4.5549941804E-01
  1.8093645485E+04  8.0161679023E-02  1.3871767166E+00  2.3646957919E-03  2.2931411597E-03  4.5704101312E-01
  1.8190635452E+04  8.0706330488E-02  1.3849208983E+00  2.3986419437E-03  2.3254989836E-03  4.5857386946E-01
  1.8287625418E+04  8.1251756730E-02  1.3826807149E+00  2.4328908772E-03  2.3581329426E-03  4.6009806816E-01
  1.8384615385E+04  8.1799681687E-02  1.3804729054E+00  2.4674436644E-03  2.3910453295E-03  4.6161368926E-01
  1.8481605351E+04  8.2349583667E-02  1.3782918213E+00  2.5023013752E-03  2.4242365085E-03  4.6312081172E-01
  1.8578595318E+04  8.2900275069E-02  1.3761255724E+00  2.5374650779E-03  2.4577062084E-03  4.6461951345E-01
  1.8675585284E+04  8.3452726233E-02  1.3739833633E+00  2.5729358385E-03  2.4914560845E-03  4.6610987133E-01
  1.8772575251E+04  8.4007910442E-02  1.3718741244E+00  2.6087147215E-03  2.5254878422E-03  4.6759196123E-01
  1.8869565217E+04  8.4563898547E-02  1.3697789681E+00  2.6448027894E-03  2.5598004800E-03  4.6906585801E-01
  1.8966555184E+04  8.5120749210E-02  1.3676983129E+00  2.6812011028E-03  2.5943948047E-03  4.7053163557E-01
  1.9063545151E+04  8.5681245882E-02  1.3656581898E+00  2.7179107205E-03  2.6292742835E-03  4.7198936685E-01
  1.9160535117E+04  8.6242560756E-02  1.3636314400E+00  2.7549326996E-03  2.6644369756E-03  4.7343912385E-01
  1.9257525084E+04  8.6804690875E-02  1.3616179088E+00  2.7922680950E-03  2.6998836189E-03  4.7488097763E-01
  1.9354515050E+04  8.7369519809E-02  1.3596349063E+00  2.8299179604E-03  2.7356168681E-03  4.7631499837E-01
  1.9451505017E+04  8.7936190070E-02  1.3576740224E+00  2.8678833472E-03  2.7716366508E-03  4.7774125534E-01
  1.9548494983E+04  8.8503689744E-02  1.3557256987E+00  2.9061653052E-03  2.8079426828E-03  4.7915981694E-01
  1.9645484950E+04  8.9072656989E-02  1.3537956349E+00  2.9447648825E-03  2.8445363691E-03  4.8057075070E-01
  1.9742474916E+04  8.9644709831E-02  1.3518982117E+00  2.9836831255E-03  2.8814201999E-03  4.8197412332E-01
  1.9839464883E+04  9.0217606095E-02  1.3500127270E+00  3.0229210786E-03  2.9185925528E-03  4.8337000066E-01
  1.9936454849E+04  9.0791342893E-02  1.3481390481E+00  3.0624797847E-03  2.9560541442E-03  4.8475844807E-01
  2.0033444816E+04  9.1368038084E-02  1.3462959440E+00  3.1024439837E-03  2.9938860011E-03  4.8613953254E-01
  2.0130434783E+04  9.1946355968E-02  1.3444710655E+00  3.1428934871E-03  3.0321606192E-03  4.8751331981E-01
  2.0227424749E+04  9.2525528259E-02  1.3426574142E+00  3.1836720155E-03  3.0707312806E-03  4.8887987455E-01
  2.0324414716E+04  9.3106086844E-02  1.3408595836E+00  3.2247806473E-03  3.1095993423E-03  4.9023926059E-01
  2.0421404682E+04  9.3689846573E-02  1.3390932569E+00  3.2662204586E-03  3.1487677012E-03  4.9159154089E-01
  2.0518394649E+04  9.4274474406E-02  1.3373376097E+00  3.3079925245E-03  3.1882344122E-03  4.9293677759E-01
  2.0615384615E+04  9.4859967519E-02  1.3355925274E+00  3.3500979180E-03  3.2280002016E-03  4.9427503201E-01
  2.0712374582E+04  9.5447977845E-02  1.3338722557E+00  3.3925377107E-03  3.2680678182E-03  4.9560636465E-01
  2.0809364548E+04  9.6038078620E-02  1.3321727127E+00  3.4353129725E-03  3.3084375322E-03  4.9693083525E-01
  2.0906354515E+04  9.6629058207E-02  1.3304832231E+00  3.4784247717E-03  3.3491085998E-03  4.9824850276E-01
  2.1003344482E+04  9.7220913829E-02  1.3288036812E+00  3.5218741751E-03  3.3900817348E-03  4.9955942538E-01
  2.1100334448E+04  9.7816234271E-02  1.3271561200E+00  3.5656622478E-03  3.4313609847E-03  5.0086366057E-01
  2.1197324415E+04  9.8412716095E-02  1.3255204437E+00  3.6097900533E-03  3.4729441809E-03  5.0216126506E-01
  2.1294314381E+04  9.9010087324E-02  1.3238942367E+00  3.6542586536E-03  3.5148316863E-03  5.0345229484E-01
  2.1391304348E+04  9.9608831345E-02  1.3222815210E+00  3.6990691093E-03  3.5570248525E-03  5.0473680523E-01
  2.1488294314E+04  1.0021082974E-01  1.3206979654E+00  3.7442224791E-03  3.5995269502E-03  5.0601485084E-01
  2.1585284281E+04  1.0081373073E-01  1.3191234250E+00  3.7897198203E-03  3.6423355746E-03  5.0728648560E-01
  2.1682274247E+04  1.0141753161E-01  1.3175578083E+00  3.8355621889E-03  3.6854514191E-03  5.0855176278E-01
  2.1779264214E+04  1.0202328457E-01  1.3160098340E+00  3.8817506392E-03  3.7288766533E-03  5.0981073498E-01
  2.1876254181E+04  1.0263172807E-01  1.3144853716E+00  3.9282862238E-03  3.7726130683E-03  5.1106345419E-01
  2.1973244147E+04  1.0324108449E-01  1.3129694074E+00  3.9751699940E-03  3.8166588885E-03  5.1230997172E-01
  2.2070234114E+04  1.0385135117E-01  1.3114618566E+00  4.0224029997E-03  3.8610147952E-03  5.1355033830E-01
  2.2167224080E+04  1.0446396048E-01  1.3099744505E+00  4.0699862892E-03  3.9056835775E-03  5.1478460403E-01
  2.2264214047E+04  1.0507888364E-01  1.3085066461E+00  4.1179209092E-03  3.9506659446E-03  5.1601281844E-01
  2.2361204013E+04  1.0569472994E-01  1.3070468561E+00  4.1662097852E-03  3.9959622810E-03  5.1723503152E-01
  2.2458193980E+04  1.0631149675E-01  1.3055950021E+00  4.2152154677E-03  4.0419056458E-03  5.1845129290E-01
  2.2555183946E+04  1.0693080617E-01  1.3041642010E+00  4.2645825495E-03  4.0881711154E-03  5.1966165146E-01
  2.2652173913E+04  1.0755224175E-01  1.3027507678E+00  4.3143121231E-03  4.1347588309E-03  5.2086615547E-01
  2.2749163880E+04  1.0817461058E-01  1.3013448957E+00  4.3644052801E-03  4.1816676765E-03  5.2206485260E-01
  2.2846153846E+04  1.0879791006E-01  1.2999465121E+00  4.4148631104E-03  4.2288983472E-03  5.2325778991E-01
  2.2943143813E+04  1.0942375999E-01  1.2985685480E+00  4.4656867024E-03  4.2764541531E-03  5.2444501392E-01
  2.3040133779E+04  1.1005173898E-01  1.2972073358E+00  4.5168771434E-03  4.3243351871E-03  5.2562657052E-01
  2.3137123746E+04  1.1068066122E-01  1.2958532597E+00  4.5684355191E-03  4.3725402468E-03  5.2680250509E-01
  2.3234113712E+04  1.1131052415E-01  1.2945062525E+00  4.6203629139E-03  4.4210700154E-03  5.2797286243E-01
  2.3331103679E+04  1.1194275187E-01  1.2931775374E+00  4.6726604109E-03  4.4699275821E-03  5.2913768680E-01
  2.3428093645E+04  1.1257730354E-01  1.2918665227E+00  4.7253290917E-03  4.5191136374E-03  5.3029702193E-01
  2.3525083612E+04  1.1321280833E-01  1.2905622452E+00  4.7783700366E-03  4.5686265705E-03  5.3145091104E-01
  2.3622073579E+04  1.1384926375E-01  1.2892646427E+00  4.8317843246E-03  4.6184670530E-03  5.3259939682E-01
  2.3719063545E+04  1.1448770371E-01  1.2879817555E+00  4.8855730334E-03  4.6686375828E-03  5.3374252146E-01
  2.3816053512E+04  1.1512885558E-01  1.2867190322E+00  4.9397372393E-03  4.7191401866E-03  5.3488032666E-01
  2.3913043478E+04  1.1577097036E-01  1.2854626712E+00  4.9942780173E-03  4.7699724772E-03  5.3601285361E-01
  2.4010033445E+04  1.1641404559E-01  1.2842126149E+00  5.0491964409E-03  4.8211351147E-03  5.3714014304E-01
  2.4107023411E+04  1.1705852966E-01  1.2829722897E+00  5.1044935827E-03  4.8726295874E-03  5.3826223520E-01
  2.4204013378E+04  1.1770630759E-01  1.2817560600E+00  5.1601705136E-03  4.9244600924E-03  5.3937916988E-01
  2.4301003344E+04  1.1835505810E-01  1.2805458404E+00  5.2162283035E-03  4.9766230508E-03  5.4049098642E-01
  2.4397993311E+04  1.1900477877E-01  1.2793415772E+00  5.2726680207E-03  5.0291191113E-03  5.4159772352E-01
  2.4494983278E+04  1.1965546718E-01  1.2781432177E+00  5.3294907326E-03  5.0819489194E-03  5.4269941875E-01
  2.4591973244E+04  1.2030956470E-01  1.2769692593E+00  5.3866975049E-03  5.1351178692E-03  5.4379611077E-01
  2.4688963211E+04  1.2096497502E-01  1.2758035051E+00  5.4442894024E-03  5.1886226331E-03  5.4488783808E-01
  2.4785953177E+04  1.2162136510E-01  1.2746433796E+00  5.5022674885E-03  5.2424632122E-03  5.4597463873E-01
  2.4882943144E+04  1.2227873256E-01  1.2734888336E+00  5.5606328253E-03  5.2966402411E-03  5.4705655032E-01
  2.4979933110E+04  1.2293852534E-01  1.2723507103E+00  5.6193864736E-03  5.3511572909E-03  5.4813361001E-01
  2.5076923077E+04  1.2360061847E-01  1.2712278432E+00  5.6788872212E-03  5.4063390439E-03  5.4920585451E-01
  2.5173913043E+04  1.2426370086E-01  1.2701102958E+00  5.7388786525E-03  5.4619497425E-03  5.5027332011E-01
  2.5270903010E+04  1.2492777016E-01  1.2689980226E+00  5.7992693531E-03  5.5179061431E-03  5.5133604270E-01
  2.5367892977E+04  1.2559308315E-01  1.2678929050E+00  5.8600604315E-03  5.5742094483E-03  5.5239405774E-01
  2.5464882943E+04  1.2626188429E-01  1.2668114657E+00  5.9212529951E-03  5.6308651229E-03  5.5344740027E-01
  2.5561872910E+04  1.2693168411E-01  1.2657350548E+00  5.9828481500E-03  5.6878686133E-03  5.5449610495E-01
  2.5658862876E+04  1.2760248031E-01  1.2646636298E+00  6.0448470011E-03  5.7452205666E-03  5.5554020605E-01
  2.5755852843E+04  1.2827427058E-01  1.2635971490E+00  6.1072506523E-03  5.8029216265E-03  5.5657973745E-01
  2.5852842809E+04  1.2894867036E-01  1.2625474131E+00  6.1700602061E-03  5.8609760305E-03  5.5761473263E-01
  2.5949832776E+04  1.2962521285E-01  1.2615107870E+00  6.2332767640E-03  5.9193834791E-03  5.5864522472E-01
  2.6046822742E+04  1.3030276110E-01  1.2604788745E+00  6.2969014263E-03  5.9781421096E-03  5.5967124647E-01
  2.6143812709E+04  1.3098131285E-01  1.2594516368E+00  6.3609352921E-03  6.0372525547E-03  5.6069283028E-01
  2.6240802676E+04  1.3166087165E-01  1.2584290776E+00  6.4253794594E-03  6.0967154571E-03  5.6171000818E-01
  2.6337792642E+04  1.3234418067E-01  1.2574309555E+00  6.4902350251E-03  6.1565378588E-03  5.6272281186E-01
  2.6434782609E+04  1.3302850476E-01  1.2564372896E+00  6.5555030849E-03  6.2167141203E-03  5.6373127266E-01
  2.6531772575E+04  1.3371384169E-01  1.2554480437E+00  6.6211847333E-03  6.2772448631E-03  5.6473542156E-01
  2.6628762542E+04  1.3440018926E-01  1.2544631821E+00  6.6872810639E-03  6.3381307053E-03  5.6573528926E-01
  2.6725752508E+04  1.3508847481E-01  1.2534893151E+00  6.7537931690E-03  6.3993745213E-03  5.6673090606E-01
  2.6822742475E+04  1.3577959715E-01  1.2525326948E+00  6.8207221397E-03  6.4609791973E-03  5.6772230200E-01
  2.6919732441E+04  1.3647174162E-01  1.2515802536E+00  6.8880690663E-03  6.5229409805E-03  5.6870950676E-01
  2.7016722408E+04  1.3716490603E-01  1.2506319581E+00  6.9558350377E-03  6.5852604780E-03  5.6969254971E-01
  2.7113712375E+04  1.3785908822E-01  1.2496877755E+00  7.0240211418E-03  6.6479382942E-03  5.7067145993E-01
  2.7210702341E+04  1.3855591805E-01  1.2487591780E+00  7.0926284655E-03  6.7109791906E-03  5.7164626619E-01
  2.7307692308E+04  1.3925489103E-01  1.2478424142E+00  7.1616580944E-03  6.7743825880E-03  5.7261699693E-01
  2.7404682274E+04  1.3995489320E-01  1.2469295702E+00  7.2311111133E-03  6.8381462742E-03  5.7358368034E-01
  2.7501672241E+04  1.4065592240E-01  1.2460206154E+00  7.3009886057E-03  6.9022708427E-03  5.7454634427E-01
  2.7598662207E+04  1.4135797653E-01  1.2451155197E+00  7.3712916541E-03  6.9667568835E-03  5.7550501633E-01
  2.7695652174E+04  1.4206316251E-01  1.2442289202E+00  7.4420213399E-03  7.0316106189E-03  5.7645972382E-01
  2.7792642140E+04  1.4277002199E-01  1.2433504686E+00  7.5131787435E-03  7.0968288593E-03  5.7741049375E-01
  2.7889632107E+04  1.4347791771E-01  1.2424756942E+00  7.5847649442E-03  7.1624105056E-03  5.7835735289E-01
  2.7986622074E+04  1.4418684756E-01  1.2416045689E+00  7.6567810202E-03  7.2283561372E-03  5.7930032770E-01
  2.8083612040E+04  1.4489680949E-01  1.2407370649E+00  7.7292280487E-03  7.2946663303E-03  5.8023944441E-01
  2.8180602007E+04  1.4561015810E-01  1.2398893312E+00  7.8021071058E-03  7.3613482517E-03  5.8117472885E-01
  2.8277591973E+04  1.4632493848E-01  1.2390477408E+00  7.8754192667E-03  7.4283971343E-03  5.8210620667E-01
  2.8374581940E+04  1.4704076216E-01  1.2382096004E+00  7.9491656054E-03  7.4958124756E-03  5.8303390380E-01
  2.8471571906E+04  1.4775762707E-01  1.2373748841E+00  8.0233471950E-03  7.5635948413E-03  5.8395784595E-01
  2.8568561873E+04  1.4847553118E-01  1.2365435663E+00  8.0979651075E-03  7.6317447939E-03  5.8487805857E-01
  2.8665551839E+04  1.4919684379E-01  1.2357316949E+00  8.1730204138E-03  7.7002698336E-03  5.8579456684E-01
  2.8762541806E+04  1.4991957805E-01  1.2349256012E+00  8.2485141840E-03  7.7691648374E-03  5.8670739567E-01
  2.8859531773E+04  1.5064336264E-01  1.2341227443E+00  8.3244474870E-03  7.8384292892E-03  5.8761656972E-01
  2.8956521739E+04  1.5136819555E-01  1.2333231004E+00  8.4008213906E-03  7.9080637411E-03  5.8852211339E-01
  2.9053511706E+04  1.5209407479E-01  1.2325266460E+00  8.4776369620E-03  7.9780687419E-03  5.8942405083E-01
  2.9150501672E+04  1.5282314798E-01  1.2317477526E+00  8.5548952669E-03  8.0484514145E-03  5.9032240594E-01
  2.9247491639E+04  1.5355386763E-01  1.2309758708E+00  8.6325973704E-03  8.1192077007E-03  5.9121720238E-01
  2.9344481605E+04  1.5428564465E-01  1.2302070259E+00  8.7107443363E-03  8.1903363611E-03  5.9210846355E-01
  2.9441471572E+04  1.5501847707E-01  1.2294411958E+00  8.7893372277E-03  8.2618379346E-03  5.9299621264E-01
  2.9538461538E+04  1.5575236293E-01  1.2286783588E+00  8.8683771065E-03  8.3337129566E-03  5.9388047260E-01
  2.9635451505E+04  1.5648898877E-01  1.2279296691E+00  8.9478650337E-03  8.4059673552E-03  5.9476126612E-01
  2.9732441472E+04  1.5722772390E-01  1.2271907886E+00  9.0278020694E-03  8.4785997690E-03  5.9563861571E-01
  2.9829431438E+04  1.5796752344E-01  1.2264547569E+00  9.1081892725E-03  8.5516074213E-03  5.9651254363E-01
  2.9926421405E+04  1.5870838543E-01  1.2257215539E+00  9.1890277012E-03  8.6249908373E-03  5.9738307191E-01
  3.0023411371E+04  1.5945030797E-01  1.2249911594E+00  9.2704500571E-03  8.6988664509E-03  5.9825022238E-01
  3.0120401338E+04  1.6019427453E-01  1.2242699892E+00  9.3527443803E-03  8.7734904003E-03  5.9911401665E-01
  3.0217391304E+04  1.6094105450E-01  1.2235629339E+00  9.4355010073E-03  8.8485040174E-03  5.9997447612E-01
  3.0314381271E+04  1.6168890589E-01  1.2228585507E+00  9.5187210378E-03  8.9239020890E-03  6.0083162198E-01
  3.0411371237E+04  1.6243782678E-01  1.2221568212E+00  9.6024055707E-03  8.9996851537E-03  6.0168547522E-01
  3.0508361204E+04  1.6318781529E-01  1.2214577269E+00  9.6865557036E-03  9.0758537469E-03  6.0253605662E-01
  3.0605351171E+04  1.6393890676E-01  1.2207614882E+00  9.7711725337E-03  9.1524085305E-03  6.0338338677E-01
  3.0702341137E+04  1.6469376120E-01  1.2200850656E+00  9.8562571570E-03  9.2293593679E-03  6.0422748604E-01
  3.0799331104E+04  1.6544969405E-01  1.2194111495E+00  9.9418106686E-03  9.3066975348E-03  6.0506837463E-01
  3.0896321070E+04  1.6620670345E-01  1.2187397228E+00  1.0027834163E-02  9.3844235563E-03  6.0590607254E-01
  3.0993311037E+04  1.6696478755E-01  1.2180707685E+00  1.0114328733E-02  9.4625379544E-03  6.0674059958E-01
  3.1090301003E+04  1.6772394450E-01  1.2174042698E+00  1.0201295471E-02  9.5410412479E-03  6.0757197538E-01
  3.1187290970E+04  1.6848574188E-01  1.2167500390E+00  1.0288735469E-02  9.6199396831E-03  6.0840021938E-01
