#[MATERIAL DEFINITION FOR MC-GPU: interaction mean free path and sampling data from PENELOPE 2006]
#[MATERIAL NAME]
# Lung_1                                                        
#[NOMINAL DENSITY (g/cm^3)]
#   0.15269500
#[NUMBER OF DATA VALUES]
#   1495
#[MEAN FREE PATHS (cm) (ie, average distance between interactions)]
#[Energy (eV)     | Rayleigh        | Compton         | Photoelectric   | TOTAL (+pair prod) (cm) | Rayleigh: max cumul prob F^2]
  5.0000000000E+03  1.2169172371E+01  5.5325849232E+01  1.5495522258E-01  1.5258493799E-01  3.4460286597E-01
  5.0969899666E+03  1.2439422938E+01  5.4686900350E+01  1.6416617764E-01  1.6154921302E-01  3.4955801519E-01
  5.1939799331E+03  1.2712719105E+01  5.4080516207E+01  1.7373480597E-01  1.7085105535E-01  3.5440638475E-01
  5.2909698997E+03  1.2988998800E+01  5.3504465848E+01  1.8366788847E-01  1.8049602756E-01  3.5915274853E-01
  5.3879598662E+03  1.3268198987E+01  5.2956700264E+01  1.9397220393E-01  1.9048963860E-01  3.6380160768E-01
  5.4849498328E+03  1.3550255849E+01  5.2435334771E+01  2.0466116109E-01  2.0084372937E-01  3.6835756168E-01
  5.5819397993E+03  1.3835104985E+01  5.1938633400E+01  2.1581565285E-01  2.1163494454E-01  3.7282508075E-01
  5.6789297659E+03  1.4122681604E+01  5.1464995025E+01  2.2736942472E-01  2.2279815552E-01  3.7720833371E-01
  5.7759197324E+03  1.4412920727E+01  5.1012941029E+01  2.3933208876E-01  2.3434132623E-01  3.8151140258E-01
  5.8729096990E+03  1.4705757390E+01  5.0581104302E+01  2.5171173453E-01  2.4627088613E-01  3.8573831165E-01
  5.9698996656E+03  1.5001126879E+01  5.0168219376E+01  2.6451244472E-01  2.5858936521E-01  3.8989282278E-01
  6.0668896321E+03  1.5298966519E+01  4.9773112191E+01  2.7778634485E-01  2.7134508757E-01  3.9397849517E-01
  6.1638795987E+03  1.5599218692E+01  4.9394689920E+01  2.9152032698E-01  2.8452388688E-01  3.9799890948E-01
  6.2608695652E+03  1.5901830728E+01  4.9031934641E+01  3.0570223800E-01  2.9811256046E-01  4.0195747119E-01
  6.3578595318E+03  1.6206751023E+01  4.8683900779E+01  3.2033937340E-01  3.1211642153E-01  4.0585737300E-01
  6.4548494983E+03  1.6514009932E+01  4.8350152186E+01  3.3543903143E-01  3.2654076456E-01  4.0970161596E-01
  6.5518394649E+03  1.6823570190E+01  4.8029942178E+01  3.5100914922E-01  3.4139138195E-01  4.1349303564E-01
  6.6488294314E+03  1.7135295792E+01  4.7722040093E+01  3.6705668481E-01  3.5667299131E-01  4.1723442986E-01
  6.7458193980E+03  1.7449136390E+01  4.7425729028E+01  3.8358872387E-01  3.7239040496E-01  4.2092846339E-01
  6.8428093645E+03  1.7765043066E+01  4.7140341154E+01  4.0061257735E-01  3.8854856889E-01  4.2457764084E-01
  6.9397993311E+03  1.8082968520E+01  4.6865254082E+01  4.1813555869E-01  4.0515235016E-01  4.2818433642E-01
  7.0367892977E+03  1.8402874921E+01  4.6599929789E+01  4.3623530676E-01  4.2227243642E-01  4.3175080644E-01
  7.1337792642E+03  1.8724942405E+01  4.6345047800E+01  4.5497305501E-01  4.3996378658E-01  4.3527921048E-01
  7.2307692308E+03  1.9048904431E+01  4.6098832265E+01  4.7424550754E-01  4.5812686763E-01  4.3877156993E-01
  7.3277591973E+03  1.9374726144E+01  4.5860804891E+01  4.9406041107E-01  4.7676651834E-01  4.4222978268E-01
  7.4247491639E+03  1.9702374204E+01  4.5630519585E+01  5.1442551812E-01  4.9588748849E-01  4.4565566559E-01
  7.5217391304E+03  2.0031935613E+01  4.5408198760E+01  5.3534858691E-01  5.1549459816E-01  4.4905096215E-01
  7.6187290970E+03  2.0363406557E+01  4.5193607962E+01  5.5683738126E-01  5.3559248670E-01  4.5241733342E-01
  7.7157190635E+03  2.0696602558E+01  4.4985557690E+01  5.7889967055E-01  5.5618543258E-01  4.5575628336E-01
  7.8127090301E+03  2.1031494666E+01  4.4783706164E+01  6.0154322962E-01  5.7727781310E-01  4.5906922910E-01
  7.9096989967E+03  2.1368220305E+01  4.4588624673E+01  6.2477583867E-01  5.9887419812E-01  4.6235754081E-01
  8.0066889632E+03  2.1706692087E+01  4.4399712238E+01  6.4861367949E-01  6.2098641181E-01  4.6562254557E-01
  8.1036789298E+03  2.2046769012E+01  4.4216055923E+01  6.7317361866E-01  6.4371802682E-01  4.6886547678E-01
  8.2006688963E+03  2.2388477210E+01  4.4037653126E+01  6.9835384245E-01  6.6697235035E-01  4.7208742869E-01
  8.2976588629E+03  2.2731990591E+01  4.3865278540E+01  7.2416237047E-01  6.9075384360E-01  4.7528945535E-01
  8.3946488294E+03  2.3077041226E+01  4.3697380598E+01  7.5060722906E-01  7.1506591929E-01  4.7847258534E-01
  8.4916387960E+03  2.3423620827E+01  4.3533798101E+01  7.7769715466E-01  7.3991303529E-01  4.8163780781E-01
  8.5886287625E+03  2.3771993551E+01  4.3375780385E+01  8.0544988419E-01  7.6530837436E-01  4.8478598200E-01
  8.6856187291E+03  2.4121841276E+01  4.3221583042E+01  8.3386378078E-01  7.9124601137E-01  4.8791790626E-01
  8.7826086957E+03  2.4473183236E+01  4.3071209132E+01  8.6294691865E-01  8.1772952415E-01  4.9103436478E-01
  8.8795986622E+03  2.4826239515E+01  4.2925685197E+01  8.9270737857E-01  8.4476302357E-01  4.9413612336E-01
  8.9765886288E+03  2.5180712913E+01  4.2783428300E+01  9.2315324775E-01  8.7234896972E-01  4.9722385156E-01
  9.0735785953E+03  2.5536701493E+01  4.2644851475E+01  9.5443736815E-01  9.0061976042E-01  5.0029814686E-01
  9.1705685619E+03  2.5894277483E+01  4.2510228741E+01  9.8647850619E-01  9.2949833915E-01  5.0335959857E-01
  9.2675585284E+03  2.6253222225E+01  4.2378409453E+01  1.0192402389E+00  9.5894705121E-01  5.0640878596E-01
  9.3645484950E+03  2.6613760071E+01  4.2250397943E+01  1.0527309443E+00  9.8896972867E-01  5.0944621164E-01
  9.4615384615E+03  2.6975724391E+01  4.2125322463E+01  1.0869590080E+00  1.0195686284E+00  5.1247231516E-01
  9.5585284281E+03  2.7339085771E+01  4.2002986690E+01  1.1219437268E+00  1.0507559254E+00  5.1548753218E-01
  9.6555183946E+03  2.7704021060E+01  4.1884134213E+01  1.1576872066E+00  1.0825294308E+00  5.1849229020E-01
  9.7525083612E+03  2.8070252691E+01  4.1767446022E+01  1.1941941474E+00  1.1148871469E+00  5.2148694618E-01
  9.8494983278E+03  2.8438037184E+01  4.1654013141E+01  1.2314729910E+00  1.1478326559E+00  5.2447181511E-01
  9.9464882943E+03  2.8807162486E+01  4.1542842860E+01  1.2695321865E+00  1.1813672153E+00  5.2744721201E-01
  1.0043478261E+04  2.9177698226E+01  4.1434192866E+01  1.3084558915E+00  1.2155586265E+00  5.3041346399E-01
  1.0140468227E+04  2.9549679817E+01  4.1328132158E+01  1.3482763134E+00  1.2504288367E+00  5.3337081723E-01
  1.0237458194E+04  2.9922954293E+01  4.1223989592E+01  1.3889113085E+00  1.2859003147E+00  5.3631944720E-01
  1.0334448161E+04  3.0297781258E+01  4.1122687268E+01  1.4303695584E+00  1.3219762911E+00  5.3925953185E-01
  1.0431438127E+04  3.0673824232E+01  4.1022899391E+01  1.4726597533E+00  1.3586565297E+00  5.4219125183E-01
  1.0528428094E+04  3.1051470580E+01  4.0925951825E+01  1.5157905923E+00  1.3959448025E+00  5.4511479042E-01
  1.0625418060E+04  3.1430341892E+01  4.0830454689E+01  1.5597707830E+00  1.4338402686E+00  5.4803033343E-01
  1.0722408027E+04  3.1810753082E+01  4.0737409384E+01  1.6046090415E+00  1.4723460925E+00  5.5093804685E-01
  1.0819397993E+04  3.2192449435E+01  4.0645922404E+01  1.6503140925E+00  1.5114618139E+00  5.5383799879E-01
  1.0916387960E+04  3.2575634169E+01  4.0556578991E+01  1.6968946689E+00  1.5511897129E+00  5.5673023933E-01
  1.1013377926E+04  3.2960151148E+01  4.0468841400E+01  1.7443595119E+00  1.5915296131E+00  5.5961482282E-01
  1.1110367893E+04  3.3346119155E+01  4.0383012318E+01  1.7927173712E+00  1.6324830260E+00  5.6249180739E-01
  1.1207357860E+04  3.3733451095E+01  4.0298781624E+01  1.8420725153E+00  1.6741288031E+00  5.6536125479E-01
  1.1304347826E+04  3.4122213077E+01  4.0216291072E+01  1.8925950746E+00  1.7165996649E+00  5.6822322993E-01
  1.1401337793E+04  3.4512352937E+01  4.0135341667E+01  1.9440528670E+00  1.7596955139E+00  5.7107776365E-01
  1.1498327759E+04  3.4903920512E+01  4.0056024666E+01  1.9964549990E+00  1.8034169675E+00  5.7392482955E-01
  1.1595317726E+04  3.5296859749E+01  3.9978146562E+01  2.0498105872E+00  1.8477636688E+00  5.7676440171E-01
  1.1692307692E+04  3.5691245403E+01  3.9901848095E+01  2.1041287577E+00  1.8927361510E+00  5.7959645847E-01
  1.1789297659E+04  3.6086973854E+01  3.9826845782E+01  2.1594186464E+00  1.9383333859E+00  5.8242098221E-01
  1.1886287625E+04  3.6484190889E+01  3.9753420029E+01  2.2156893987E+00  1.9845561935E+00  5.8523795927E-01
  1.1983277592E+04  3.6882696647E+01  3.9681111433E+01  2.2729501697E+00  2.0314024619E+00  5.8804736755E-01
  1.2080267559E+04  3.7282759136E+01  3.9610421063E+01  2.3312101239E+00  2.0788737516E+00  5.9084913830E-01
  1.2177257525E+04  3.7684028441E+01  3.9540636600E+01  2.3904784350E+00  2.1269663688E+00  5.9364319627E-01
  1.2274247492E+04  3.8086951179E+01  3.9472552139E+01  2.4507642864E+00  2.1756831588E+00  5.9642947067E-01
  1.2371237458E+04  3.8490968306E+01  3.9405133854E+01  2.5120768704E+00  2.2250182548E+00  5.9920789505E-01
  1.2468227425E+04  3.8896767126E+01  3.9339533315E+01  2.5744253886E+00  2.2749764303E+00  6.0197840704E-01
  1.2565217391E+04  3.9303649951E+01  3.9274549053E+01  2.6378937067E+00  2.3256082043E+00  6.0474097864E-01
  1.2662207358E+04  3.9712217925E+01  3.9211109351E+01  2.7024566912E+00  2.3768900170E+00  6.0749557510E-01
  1.2759197324E+04  4.0122006808E+01  3.9148469153E+01  2.7680880527E+00  2.4287882628E+00  6.1024209856E-01
  1.2856187291E+04  4.0533335597E+01  3.9087053570E+01  2.8347971216E+00  2.4813039938E+00  6.1298045485E-01
  1.2953177258E+04  4.0946083596E+01  3.9026669852E+01  2.9025932377E+00  2.5344342599E+00  6.1571055406E-01
  1.3050167224E+04  4.1360168029E+01  3.8967162532E+01  2.9714857502E+00  2.5881761165E+00  6.1843231070E-01
  1.3147157191E+04  4.1775931211E+01  3.8908953068E+01  3.0414840177E+00  2.6425307040E+00  6.2114564244E-01
  1.3244147157E+04  4.2192771736E+01  3.8851257454E+01  3.1125974080E+00  2.6974898347E+00  6.2385042442E-01
  1.3341137124E+04  4.2611596419E+01  3.8795130923E+01  3.1848352980E+00  2.7530598876E+00  6.2654652178E-01
  1.3438127090E+04  4.3031510979E+01  3.8739504361E+01  3.2582070738E+00  2.8092295104E+00  6.2923380454E-01
  1.3535117057E+04  4.3453121199E+01  3.8685024940E+01  3.3327221306E+00  2.8660019079E+00  6.3191214747E-01
  1.3632107023E+04  4.3876169670E+01  3.8631394927E+01  3.4083898727E+00  2.9233717343E+00  6.3458143006E-01
  1.3729096990E+04  4.4300542351E+01  3.8578465445E+01  3.4854112105E+00  2.9814748198E+00  6.3724153635E-01
  1.3826086957E+04  4.4726785976E+01  3.8526763078E+01  3.5639418836E+00  3.0404180495E+00  6.3989235490E-01
  1.3923076923E+04  4.5154108096E+01  3.8475490705E+01  3.6436732349E+00  3.0999555419E+00  6.4253377864E-01
  1.4020066890E+04  4.5583392424E+01  3.8425450760E+01  3.7246150390E+00  3.1600932809E+00  6.4516570484E-01
  1.4117056856E+04  4.6013975843E+01  3.8376018011E+01  3.8067770810E+00  3.2208207086E+00  6.4778803316E-01
  1.4214046823E+04  4.6446015514E+01  3.8327307445E+01  3.8901691567E+00  3.2821357281E+00  6.5040063660E-01
  1.4311036789E+04  4.6879924710E+01  3.8279653157E+01  3.9748010719E+00  3.3440392916E+00  6.5300337652E-01
  1.4408026756E+04  4.7314915705E+01  3.8232379401E+01  4.0606826428E+00  3.4065185630E+00  6.5559612081E-01
  1.4505016722E+04  4.7751975915E+01  3.8186255571E+01  4.1478236957E+00  3.4695807593E+00  6.5817874227E-01
  1.4602006689E+04  4.8190363436E+01  3.8140682232E+01  4.2362340672E+00  3.5332133091E+00  6.6075111854E-01
  1.4698996656E+04  4.8630143832E+01  3.8095691149E+01  4.3259236040E+00  3.5974125170E+00  6.6331313206E-01
  1.4795986622E+04  4.9071995232E+01  3.8051763700E+01  4.4169021626E+00  3.6621822193E+00  6.6586466994E-01
  1.4892976589E+04  4.9514934973E+01  3.8008173421E+01  4.5091796095E+00  3.7275060638E+00  6.6840562388E-01
  1.4989966555E+04  4.9959819493E+01  3.7965498398E+01  4.6027658214E+00  3.7933898017E+00  6.7093589015E-01
  1.5086956522E+04  5.0406298515E+01  3.7923484714E+01  4.6979265707E+00  3.8599973248E+00  6.7345536864E-01
  1.5183946488E+04  5.0853868151E+01  3.7881786310E+01  4.7944548623E+00  3.9271685545E+00  6.7596394618E-01
  1.5280936455E+04  5.1303929892E+01  3.7841282569E+01  4.8923317487E+00  3.9948967518E+00  6.7846150155E-01
  1.5377926421E+04  5.1755120936E+01  3.7801097659E+01  4.9915673074E+00  4.0631594519E+00  6.8094791891E-01
  1.5474916388E+04  5.2207826069E+01  3.7761455868E+01  5.0921716264E+00  4.1319562398E+00  6.8342308734E-01
  1.5571906355E+04  5.2662717266E+01  3.7722741478E+01  5.1941548040E+00  4.2012909448E+00  6.8588690081E-01
  1.5668896321E+04  5.3118710537E+01  3.7684306796E+01  5.2975269489E+00  4.2711436471E+00  6.8833925804E-01
  1.5765886288E+04  5.3576646612E+01  3.7646613287E+01  5.4022981801E+00  4.3415201430E+00  6.9078006250E-01
  1.5862876254E+04  5.4036428704E+01  3.7609593527E+01  5.5084786268E+00  4.4124137938E+00  6.9320922226E-01
  1.5959866221E+04  5.4497317781E+01  3.7572835498E+01  5.6160784285E+00  4.4838084709E+00  6.9562664995E-01
  1.6056856187E+04  5.4960540800E+01  3.7536969147E+01  5.7251077346E+00  4.5557157276E+00  6.9803225769E-01
  1.6153846154E+04  5.5425309705E+01  3.7501573798E+01  5.8355767048E+00  4.6281187307E+00  7.0042594719E-01
  1.6250836120E+04  5.5891191398E+01  3.7466423409E+01  5.9474955088E+00  4.7010049928E+00  7.0280762307E-01
  1.6347826087E+04  5.6359748483E+01  3.7432269583E+01  6.0608743261E+00  4.7743915272E+00  7.0517719482E-01
  1.6444816054E+04  5.6829603252E+01  3.7398432727E+01  6.1757233462E+00  4.8482520598E+00  7.0753457674E-01
  1.6541806020E+04  5.7300594439E+01  3.7364832902E+01  6.2920527685E+00  4.9225776166E+00  7.0987968788E-01
  1.6638795987E+04  5.7774506250E+01  3.7332275236E+01  6.4098728023E+00  4.9973893169E+00  7.1221245187E-01
  1.6735785953E+04  5.8249548953E+01  3.7299934925E+01  6.5291936663E+00  5.0726535325E+00  7.1453279696E-01
  1.6832775920E+04  5.8725850163E+01  3.7267865637E+01  6.6500255894E+00  5.1483654499E+00  7.1684065582E-01
  1.6929765886E+04  5.9205046568E+01  3.7236760153E+01  6.7723788098E+00  5.2245446954E+00  7.1913596109E-01
  1.7026755853E+04  5.9685382189E+01  3.7205858104E+01  6.8962635755E+00  5.3011569327E+00  7.2141863874E-01
  1.7123745819E+04  6.0167008995E+01  3.7175219867E+01  7.0216901438E+00  5.3781976141E+00  7.2368861797E-01
  1.7220735786E+04  6.0651596941E+01  3.7145510786E+01  7.1486687819E+00  5.4556876748E+00  7.2594583268E-01
  1.7317725753E+04  6.1137333276E+01  3.7115992105E+01  7.2772097662E+00  5.5335906696E+00  7.2819022137E-01
  1.7414715719E+04  6.1624289870E+01  3.7086690330E+01  7.4073233825E+00  5.6119005931E+00  7.3042172705E-01
  1.7511705686E+04  6.2114377829E+01  3.7058325184E+01  7.5391500698E+00  5.6907174174E+00  7.3264029717E-01
  1.7608695652E+04  6.2605624181E+01  3.7030138222E+01  7.6735362625E+00  5.7704720019E+00  7.3484588349E-01
  1.7705685619E+04  6.3098025260E+01  3.7002127353E+01  7.8095585869E+00  5.8506205535E+00  7.3703845647E-01
  1.7802675585E+04  6.3593589197E+01  3.6975013234E+01  7.9472278112E+00  5.9311915053E+00  7.3921803743E-01
  1.7899665552E+04  6.4090444947E+01  3.6948110298E+01  8.0865547148E+00  6.0121448312E+00  7.4138459028E-01
  1.7996655518E+04  6.4588466190E+01  3.6921372160E+01  8.2275500881E+00  6.0934706169E+00  7.4353807510E-01
  1.8093645485E+04  6.5089395134E+01  3.6895396963E+01  8.3702247326E+00  6.1751935856E+00  7.4567845613E-01
  1.8190635452E+04  6.5591954252E+01  3.6869733604E+01  8.5145894606E+00  6.2572833009E+00  7.4780570160E-01
  1.8287625418E+04  6.6095690246E+01  3.6844224424E+01  8.6606550957E+00  6.3397236475E+00  7.4991978372E-01
  1.8384615385E+04  6.6601938372E+01  3.6819308320E+01  8.8084324719E+00  6.4225325729E+00  7.5202067854E-01
  1.8481605351E+04  6.7110296314E+01  3.6794842516E+01  8.9579324345E+00  6.5056954693E+00  7.5410835722E-01
  1.8578595318E+04  6.7619843127E+01  3.6770520900E+01  9.1091658394E+00  6.5891869216E+00  7.5618275682E-01
  1.8675585284E+04  6.8131353490E+01  3.6746587327E+01  9.2621435532E+00  6.6730144946E+00  7.5824387683E-01
  1.8772575251E+04  6.8645607218E+01  3.6723279308E+01  9.4168938144E+00  6.7571956612E+00  7.6029173018E-01
  1.8869565217E+04  6.9161062420E+01  3.6700106072E+01  9.5734196314E+00  6.8416878320E+00  7.6232633239E-01
  1.8966555184E+04  6.9677766502E+01  3.6677081520E+01  9.7317232067E+00  6.9264794805E+00  7.6434770145E-01
  1.9063545151E+04  7.0198014420E+01  3.6654893615E+01  9.8918154604E+00  7.0116107397E+00  7.6635585775E-01
  1.9160535117E+04  7.0719477023E+01  3.6632831631E+01  1.0053707323E+01  7.0970261212E+00  7.6835082402E-01
  1.9257525084E+04  7.1242150976E+01  3.6610894221E+01  1.0217409736E+01  7.1827175317E+00  7.7033261227E-01
  1.9354515050E+04  7.1767636153E+01  3.6589541935E+01  1.0382933652E+01  7.2687115357E+00  7.7230119312E-01
  1.9451505017E+04  7.2295206541E+01  3.6568555997E+01  1.0550290031E+01  7.3549855494E+00  7.7425655162E-01
  1.9548494983E+04  7.2824002148E+01  3.6547686387E+01  1.0719489847E+01  7.4415131822E+00  7.7619867794E-01
  1.9645484950E+04  7.3354580824E+01  3.6527087177E+01  1.0890544082E+01  7.5282988268E+00  7.7812756596E-01
  1.9742474916E+04  7.3888360687E+01  3.6507143873E+01  1.1063463729E+01  7.6153669254E+00  7.8004321323E-01
  1.9839464883E+04  7.4423380242E+01  3.6487309114E+01  1.1238259793E+01  7.7026662878E+00  7.8194562081E-01
  1.9936454849E+04  7.4959636289E+01  3.6467581785E+01  1.1414943286E+01  7.7901888175E+00  7.8383479314E-01
  2.0033444816E+04  7.5499035642E+01  3.6448465776E+01  1.1593613604E+01  7.8780116135E+00  7.8571073477E-01
  2.0130434783E+04  7.6040378508E+01  3.6429634482E+01  1.1774366014E+01  7.9661375508E+00  7.8757344795E-01
  2.0227424749E+04  7.6582972951E+01  3.6410903359E+01  1.1957046010E+01  8.0544655805E+00  7.8942293787E-01
  2.0324414716E+04  7.7127307091E+01  3.6392397540E+01  1.2141664737E+01  8.1429994133E+00  7.9125921317E-01
  2.0421404682E+04  7.7675050288E+01  3.6374539393E+01  1.2328233350E+01  8.2317720066E+00  7.9308228580E-01
  2.0518394649E+04  7.8224060492E+01  3.6356774562E+01  1.2516763015E+01  8.3207245869E+00  7.9489217098E-01
  2.0615384615E+04  7.8774334624E+01  3.6339102122E+01  1.2707264906E+01  8.4098491379E+00  7.9668888698E-01
  2.0712374582E+04  7.9327417430E+01  3.6321905482E+01  1.2899750209E+01  8.4991764735E+00  7.9847243391E-01
  2.0809364548E+04  7.9882912739E+01  3.6305078311E+01  1.3094230120E+01  8.5886899450E+00  8.0024284006E-01
  2.0906354515E+04  8.0439687721E+01  3.6288337129E+01  1.3290715846E+01  8.6783536055E+00  8.0200016228E-01
  2.1003344482E+04  8.0997739365E+01  3.6271681100E+01  1.3489218603E+01  8.7681595475E+00  8.0374445886E-01
  2.1100334448E+04  8.1559532804E+01  3.6255702319E+01  1.3689749617E+01  8.8581644001E+00  8.0547578950E-01
  2.1197324415E+04  8.2122878119E+01  3.6239865469E+01  1.3892320125E+01  8.9483045955E+00  8.0719421518E-01
  2.1294314381E+04  8.2687516153E+01  3.6224107788E+01  1.4096941374E+01  9.0385657081E+00  8.0889979807E-01
  2.1391304348E+04  8.3253914974E+01  3.6208538844E+01  1.4303624620E+01  9.1289526466E+00  8.1059257990E-01
  2.1488294314E+04  8.3823899953E+01  3.6193580661E+01  1.4512381131E+01  9.2195077705E+00  8.1227257841E-01
  2.1585284281E+04  8.4395193974E+01  3.6178695980E+01  1.4723222182E+01  9.3101628218E+00  8.1393981763E-01
  2.1682274247E+04  8.4967794141E+01  3.6163884111E+01  1.4936159061E+01  9.4009101618E+00  8.1559432459E-01
  2.1779264214E+04  8.5542738269E+01  3.6149380417E+01  1.5151203063E+01  9.4917712791E+00  8.1723612918E-01
  2.1876254181E+04  8.6120757685E+01  3.6135344549E+01  1.5368365496E+01  9.5827601801E+00  8.1886526403E-01
  2.1973244147E+04  8.6700099878E+01  3.6121376186E+01  1.5587657674E+01  9.6738209408E+00  8.2048176449E-01
  2.2070234114E+04  8.7280762016E+01  3.6107474708E+01  1.5809090924E+01  9.7649461107E+00  8.2208566843E-01
  2.2167224080E+04  8.7864182778E+01  3.6093956252E+01  1.6032676582E+01  9.8561700445E+00  8.2367701625E-01
  2.2264214047E+04  8.8450336449E+01  3.6080808578E+01  1.6258425993E+01  9.9474858681E+00  8.2525585068E-01
  2.2361204013E+04  8.9037827002E+01  3.6067722813E+01  1.6486358788E+01  1.0038849372E+01  8.2682221679E-01
  2.2458193980E+04  8.9626651669E+01  3.6054698399E+01  1.6718081324E+01  1.0130838952E+01  8.2837616183E-01
  2.2555183946E+04  9.0218469480E+01  3.6042088710E+01  1.6952039405E+01  1.0222910850E+01  8.2991773517E-01
  2.2652173913E+04  9.0812857905E+01  3.6029797109E+01  1.7188244821E+01  1.0315046407E+01  8.3144698689E-01
  2.2749163880E+04  9.1408597687E+01  3.6017562189E+01  1.7426709371E+01  1.0407202266E+01  8.3296396029E-01
  2.2846153846E+04  9.2005686118E+01  3.6005383450E+01  1.7667444867E+01  1.0499371274E+01  8.3446869737E-01
  2.2943143813E+04  9.2605810168E+01  3.5993609347E+01  1.7910463133E+01  1.0591598652E+01  8.3596124251E-01
  2.3040133779E+04  9.3208534490E+01  3.5982143548E+01  1.8155776000E+01  1.0683865167E+01  8.3744164244E-01
  2.3137123746E+04  9.3812625007E+01  3.5970729544E+01  1.8403395314E+01  1.0776126047E+01  8.3890994606E-01
  2.3234113712E+04  9.4418079070E+01  3.5959366885E+01  1.8653332928E+01  1.0868374389E+01  8.4036620440E-01
  2.3331103679E+04  9.5026407016E+01  3.5948358241E+01  1.8905600709E+01  1.0960651665E+01  8.4181047053E-01
  2.3428093645E+04  9.5637568972E+01  3.5937689689E+01  1.9160210532E+01  1.1052951049E+01  8.4324279946E-01
  2.3525083612E+04  9.6250112325E+01  3.5927068359E+01  1.9417174283E+01  1.1145219916E+01  8.4466324803E-01
  2.3622073579E+04  9.6864034481E+01  3.5916493848E+01  1.9676503862E+01  1.1237451633E+01  8.4607187486E-01
  2.3719063545E+04  9.7480452129E+01  3.5906183382E+01  1.9938211174E+01  1.1329676425E+01  8.4746874024E-01
  2.3816053512E+04  9.8100154014E+01  3.5896285112E+01  2.0202308140E+01  1.1421914825E+01  8.4885390606E-01
  2.3913043478E+04  9.8721252853E+01  3.5886429783E+01  2.0468806687E+01  1.1514098936E+01  8.5022743210E-01
  2.4010033445E+04  9.9343746111E+01  3.5876617035E+01  2.0737718755E+01  1.1606222411E+01  8.5158937234E-01
  2.4107023411E+04  9.9968127097E+01  3.5866940113E+01  2.1009056293E+01  1.1698295718E+01  8.5293978171E-01
  2.4204013378E+04  1.0059647171E+02  3.5857786640E+01  2.1282831263E+01  1.1790383703E+01  8.5427871704E-01
  2.4301003344E+04  1.0122622920E+02  3.5848672096E+01  2.1559055634E+01  1.1882394783E+01  8.5560623691E-01
  2.4397993311E+04  1.0185739707E+02  3.5839596160E+01  2.1837741387E+01  1.1974322902E+01  8.5692240158E-01
  2.4494983278E+04  1.0248997286E+02  3.5830558517E+01  2.2118900513E+01  1.2066162079E+01  8.5822727291E-01
  2.4591973244E+04  1.0312669315E+02  3.5822057831E+01  2.2402545014E+01  1.2158001955E+01  8.5952091428E-01
  2.4688963211E+04  1.0376521290E+02  3.5813660211E+01  2.2688686901E+01  1.2249756328E+01  8.6080339050E-01
  2.4785953177E+04  1.0440515936E+02  3.5805297472E+01  2.2977338196E+01  1.2341406609E+01  8.6207476773E-01
  2.4882943144E+04  1.0504653012E+02  3.5796969336E+01  2.3268510931E+01  1.2432947120E+01  8.6333511340E-01
  2.4979933110E+04  1.0569097488E+02  3.5788968431E+01  2.3562217148E+01  1.2524431328E+01  8.6458449708E-01
  2.5076923077E+04  1.0633835509E+02  3.5781264965E+01  2.3859023451E+01  1.2616004962E+01  8.6582301779E-01
  2.5173913043E+04  1.0698717865E+02  3.5773592884E+01  2.4158545618E+01  1.2707495141E+01  8.6705075668E-01
  2.5270903010E+04  1.0763744318E+02  3.5765951941E+01  2.4460652769E+01  1.2798856018E+01  8.6826778073E-01
  2.5367892977E+04  1.0828944226E+02  3.5758393495E+01  2.4765357142E+01  1.2890093154E+01  8.6947415805E-01
  2.5464882943E+04  1.0894574223E+02  3.5751361483E+01  2.5072670986E+01  1.2981296641E+01  8.7066995781E-01
  2.5561872910E+04  1.0960350215E+02  3.5744357579E+01  2.5382606559E+01  1.3072357375E+01  8.7185525015E-01
  2.5658862876E+04  1.1026271969E+02  3.5737381564E+01  2.5695176131E+01  1.3163270255E+01  8.7303010614E-01
  2.5755852843E+04  1.1092339257E+02  3.5730433223E+01  2.6010391983E+01  1.3254030255E+01  8.7419459769E-01
  2.5852842809E+04  1.1158736188E+02  3.5723828039E+01  2.6328266404E+01  1.3344702843E+01  8.7534879751E-01
  2.5949832776E+04  1.1225409962E+02  3.5717470528E+01  2.6648811696E+01  1.3435264117E+01  8.7649277903E-01
  2.6046822742E+04  1.1292231149E+02  3.5711137860E+01  2.6972040170E+01  1.3525660202E+01  8.7762661636E-01
  2.6143812709E+04  1.1359199524E+02  3.5704829846E+01  2.7297964146E+01  1.3615886385E+01  8.7875037894E-01
  2.6240802676E+04  1.1426315523E+02  3.5698547415E+01  2.7626595957E+01  1.3705938288E+01  8.7986412315E-01
  2.6337792642E+04  1.1493890981E+02  3.5692815602E+01  2.7957947945E+01  1.3795934786E+01  8.8096791263E-01
  2.6434782609E+04  1.1561615486E+02  3.5687105774E+01  2.8292032462E+01  1.3885749974E+01  8.8206181253E-01
  2.6531772575E+04  1.1629488817E+02  3.5681417765E+01  2.8628861869E+01  1.3975379447E+01  8.8314588904E-01
  2.6628762542E+04  1.1697510756E+02  3.5675751413E+01  2.8968448541E+01  1.4064818878E+01  8.8422020928E-01
  2.6725752508E+04  1.1765786387E+02  3.5670281907E+01  2.9310804859E+01  1.4154106865E+01  8.8528484129E-01
  2.6822742475E+04  1.1834417857E+02  3.5665175415E+01  2.9655943216E+01  1.4243281707E+01  8.8633985392E-01
  2.6919732441E+04  1.1903199775E+02  3.5660088083E+01  3.0003876014E+01  1.4332256217E+01  8.8738531679E-01
  2.7016722408E+04  1.1972131928E+02  3.5655019768E+01  3.0354615668E+01  1.4421026374E+01  8.8842130020E-01
  2.7113712375E+04  1.2041214101E+02  3.5649970333E+01  3.0708174599E+01  1.4509588231E+01  8.8944787514E-01
  2.7210702341E+04  1.2110630441E+02  3.5645241740E+01  3.1064565241E+01  1.4598015373E+01  8.9046511243E-01
  2.7307692308E+04  1.2180324339E+02  3.5640736683E+01  3.1423800036E+01  1.4686281236E+01  8.9147307864E-01
  2.7404682274E+04  1.2250170080E+02  3.5636248164E+01  3.1785910463E+01  1.4774333716E+01  8.9247183908E-01
  2.7501672241E+04  1.2320167455E+02  3.5631776065E+01  3.2150971450E+01  1.4862182375E+01  8.9346145986E-01
  2.7598662207E+04  1.2390316257E+02  3.5627320268E+01  3.2518916022E+01  1.4949806278E+01  8.9444200785E-01
  2.7695652174E+04  1.2460853808E+02  3.5623263939E+01  3.2889756683E+01  1.5037304808E+01  8.9541355062E-01
  2.7792642140E+04  1.2531616276E+02  3.5619337834E+01  3.3263505945E+01  1.5124604636E+01  8.9637615638E-01
  2.7889632107E+04  1.2602531973E+02  3.5615425837E+01  3.3640176329E+01  1.5211671566E+01  8.9732989392E-01
  2.7986622074E+04  1.2673600696E+02  3.5611527849E+01  3.4019780367E+01  1.5298502308E+01  8.9827483257E-01
  2.8083612040E+04  1.2744822244E+02  3.5607643770E+01  3.4402330601E+01  1.5385093645E+01  8.9921104211E-01
  2.8180602007E+04  1.2816460990E+02  3.5604194181E+01  3.4787839583E+01  1.5471560424E+01  9.0013859275E-01
  2.8277591973E+04  1.2888297893E+02  3.5600825847E+01  3.5176319873E+01  1.5557802947E+01  9.0105755294E-01
  2.8374581940E+04  1.2960289404E+02  3.5597469364E+01  3.5567784043E+01  1.5643798947E+01  9.0196798755E-01
  2.8471571906E+04  1.3032435324E+02  3.5594124650E+01  3.5962244673E+01  1.5729545485E+01  9.0286996161E-01
  2.8568561873E+04  1.3104735458E+02  3.5590791623E+01  3.6359714353E+01  1.5815039693E+01  9.0376354075E-01
  2.8665551839E+04  1.3177454929E+02  3.5587886167E+01  3.6760205684E+01  1.5900400438E+01  9.0464879110E-01
  2.8762541806E+04  1.3250371858E+02  3.5585055626E+01  3.7163731274E+01  1.5985524251E+01  9.0552577929E-01
  2.8859531773E+04  1.3323444762E+02  3.5582234838E+01  3.7570303743E+01  1.6070389595E+01  9.0639457233E-01
  2.8956521739E+04  1.3396673450E+02  3.5579423736E+01  3.7979935720E+01  1.6154993869E+01  9.0725523766E-01
  2.9053511706E+04  1.3470057731E+02  3.5576622256E+01  3.8392639843E+01  1.6239334537E+01  9.0810784299E-01
  2.9150501672E+04  1.3543837067E+02  3.5574201047E+01  3.8808428760E+01  1.6323521999E+01  9.0895245636E-01
  2.9247491639E+04  1.3617839334E+02  3.5571889434E+01  3.9227315127E+01  1.6407473702E+01  9.0978914485E-01
  2.9344481605E+04  1.3691998935E+02  3.5569585624E+01  3.9649311612E+01  1.6491156594E+01  9.1061797200E-01
  2.9441471572E+04  1.3766315684E+02  3.5567289564E+01  4.0074430890E+01  1.6574568395E+01  9.1143900100E-01
  2.9538461538E+04  1.3840789392E+02  3.5565001203E+01  4.0502685648E+01  1.6657706888E+01  9.1225229546E-01
  2.9635451505E+04  1.3915607409E+02  3.5563006900E+01  4.0934088580E+01  1.6740660524E+01  9.1305791936E-01
  2.9732441472E+04  1.3990700048E+02  3.5561196383E+01  4.1368652391E+01  1.6823394332E+01  9.1385593701E-01
  2.9829431438E+04  1.4065951369E+02  3.5559391854E+01  4.1806389794E+01  1.6905850508E+01  9.1464641301E-01
  2.9926421405E+04  1.4141361189E+02  3.5557593275E+01  4.2247313511E+01  1.6988027078E+01  9.1542941218E-01
  3.0023411371E+04  1.4216929326E+02  3.5555800605E+01  4.2692103681E+01  1.7070028824E+01  9.1620499955E-01
  3.0120401338E+04  1.4292764422E+02  3.5554178089E+01  4.3142233640E+01  1.7152135063E+01  9.1697324049E-01
  3.0217391304E+04  1.4368951750E+02  3.5552851368E+01  4.3595637488E+01  1.7234050656E+01  9.1773420579E-01
  3.0314381271E+04  1.4445299091E+02  3.5551528948E+01  4.4052328390E+01  1.7315678948E+01  9.1848795777E-01
  3.0411371237E+04  1.4521806267E+02  3.5550210802E+01  4.4512319523E+01  1.7397018204E+01  9.1923455441E-01
  3.0508361204E+04  1.4598473102E+02  3.5548896901E+01  4.4975624074E+01  1.7478066752E+01  9.1997405409E-01
  3.0605351171E+04  1.4675303486E+02  3.5547593301E+01  4.5442255239E+01  1.7558825041E+01  9.2070651560E-01
  3.0702341137E+04  1.4752588425E+02  3.5546732956E+01  4.5912226226E+01  1.7639439802E+01  9.2143199808E-01
  3.0799331104E+04  1.4830034685E+02  3.5545875346E+01  4.6385550252E+01  1.7719761029E+01  9.2215056092E-01
  3.0896321070E+04  1.4907642092E+02  3.5545020452E+01  4.6862240544E+01  1.7799787265E+01  9.2286226382E-01
  3.0993311037E+04  1.4985410474E+02  3.5544168259E+01  4.7342310341E+01  1.7879517108E+01  9.2356716666E-01
  3.1090301003E+04  1.5063339661E+02  3.5543318749E+01  4.7825772890E+01  1.7958949211E+01  9.2426532951E-01
  3.1187290970E+04  1.5141599221E+02  3.5542722227E+01  4.8312641450E+01  1.8038170845E+01  9.2495681257E-01
