#[MATERIAL DEFINITION FOR MC-GPU: interaction mean free path and sampling data from PENELOPE 2006]
#[MATERIAL NAME]
# Lung_5                                                        
#[NOMINAL DENSITY (g/cm^3)]
#   0.88002100
#[NUMBER OF DATA VALUES]
#   1495
#[MEAN FREE PATHS (cm) (ie, average distance between interactions)]
#[Energy (eV)     | Rayleigh        | Compton         | Photoelectric   | TOTAL (+pair prod) (cm) | Rayleigh: max cumul prob F^2]
  5.0000000000E+03  2.1115084471E+00  9.5997488111E+00  2.6886730785E-02  2.6475455821E-02  3.4460286597E-01
  5.0969899666E+03  2.1584004081E+00  9.4888829345E+00  2.8484950353E-02  2.8030873220E-02  3.4955801519E-01
  5.1939799331E+03  2.2058208198E+00  9.3836674605E+00  3.0145230849E-02  2.9644862903E-02  3.5440638475E-01
  5.2909698997E+03  2.2537589123E+00  9.2837152894E+00  3.1868748847E-02  3.1318390047E-02  3.5915274853E-01
  5.3879598662E+03  2.3022037477E+00  9.1886708918E+00  3.3656680555E-02  3.3052410529E-02  3.6380160768E-01
  5.4849498328E+03  2.3511442532E+00  9.0982072507E+00  3.5511352562E-02  3.4848978895E-02  3.6835756168E-01
  5.5819397993E+03  2.4005692542E+00  9.0120231528E+00  3.7446800829E-02  3.6721393985E-02  3.7282508075E-01
  5.6789297659E+03  2.4504675087E+00  8.9298407825E+00  3.9451529347E-02  3.8658355149E-02  3.7720833371E-01
  5.7759197324E+03  2.5008277421E+00  8.8514035807E+00  4.1527205933E-02  4.0661244230E-02  3.8151140258E-01
  5.8729096990E+03  2.5516386822E+00  8.7764743358E+00  4.3675234231E-02  4.2731176822E-02  3.8573831165E-01
  5.9698996656E+03  2.6028891001E+00  8.7048334728E+00  4.5896322641E-02  4.4868591909E-02  3.8989282278E-01
  6.0668896321E+03  2.6545681213E+00  8.6362772774E+00  4.8199515610E-02  4.7081874349E-02  3.9397849517E-01
  6.1638795987E+03  2.7066657480E+00  8.5706161300E+00  5.0582538745E-02  4.9368566099E-02  3.9799890948E-01
  6.2608695652E+03  2.7591728414E+00  8.5076734078E+00  5.3043283321E-02  5.1726376324E-02  4.0195747119E-01
  6.3578595318E+03  2.8120804475E+00  8.4472850415E+00  5.5583015202E-02  5.4156226937E-02  4.0585737300E-01
  6.4548494983E+03  2.8653938333E+00  8.3893753536E+00  5.8203000728E-02  5.6659036597E-02  4.0970161596E-01
  6.5518394649E+03  2.9191065328E+00  8.3338147850E+00  6.0904617094E-02  5.9235810357E-02  4.1349303564E-01
  6.6488294314E+03  2.9731949475E+00  8.2803897998E+00  6.3689071610E-02  6.1887366788E-02  4.1723442986E-01
  6.7458193980E+03  3.0276503415E+00  8.2289760061E+00  6.6557593729E-02  6.4614540886E-02  4.2092846339E-01
  6.8428093645E+03  3.0824642264E+00  8.1794575271E+00  6.9511451998E-02  6.7418190847E-02  4.2457764084E-01
  6.9397993311E+03  3.1376283955E+00  8.1317263703E+00  7.2551915391E-02  7.0299161164E-02  4.2818433642E-01
  7.0367892977E+03  3.1931362844E+00  8.0856891814E+00  7.5692455256E-02  7.3269717062E-02  4.3175080644E-01
  7.1337792642E+03  3.2490191490E+00  8.0414638671E+00  7.8943696383E-02  7.6339394619E-02  4.3527921048E-01
  7.2307692308E+03  3.3052307412E+00  7.9987422944E+00  8.2287715604E-02  7.9490923572E-02  4.3877156993E-01
  7.3277591973E+03  3.3617650131E+00  7.9574414733E+00  8.5725857075E-02  8.2725143511E-02  4.4222978268E-01
  7.4247491639E+03  3.4186161797E+00  7.9174840009E+00  8.9259465956E-02  8.6042878584E-02  4.4565566559E-01
  7.5217391304E+03  3.4757993371E+00  7.8789084689E+00  9.2889888398E-02  8.9444965138E-02  4.4905096215E-01
  7.6187290970E+03  3.5333138234E+00  7.8416741962E+00  9.6618471526E-02  9.2932208159E-02  4.5241733342E-01
  7.7157190635E+03  3.5911276295E+00  7.8055747892E+00  1.0044656343E-01  9.6505350017E-02  4.5575628336E-01
  7.8127090301E+03  3.6492357320E+00  7.7705509444E+00  1.0437551314E-01  1.0016515023E-01  4.5906922910E-01
  7.9096989967E+03  3.7076619757E+00  7.7367017883E+00  1.0840667062E-01  1.0391240173E-01  4.6235754081E-01
  8.0066889632E+03  3.7663911977E+00  7.7039230429E+00  1.1254284362E-01  1.0774915616E-01  4.6562254557E-01
  8.1036789298E+03  3.8253989328E+00  7.6720563022E+00  1.1680431001E-01  1.1169338471E-01  4.6886547678E-01
  8.2006688963E+03  3.8846897149E+00  7.6411011147E+00  1.2117340378E-01  1.1572830993E-01  4.7208742869E-01
  8.2976588629E+03  3.9442937194E+00  7.6111918996E+00  1.2565151645E-01  1.1985470591E-01  4.7528945535E-01
  8.3946488294E+03  4.0041644574E+00  7.5820594399E+00  1.3024004068E-01  1.2407316478E-01  4.7847258534E-01
  8.4916387960E+03  4.0643004907E+00  7.5536757657E+00  1.3494049236E-01  1.2838446006E-01  4.8163780781E-01
  8.5886287625E+03  4.1247476540E+00  7.5262576529E+00  1.3975594908E-01  1.3279087911E-01  4.8478598200E-01
  8.6856187291E+03  4.1854507491E+00  7.4995024239E+00  1.4468612682E-01  1.3729139385E-01  4.8791790626E-01
  8.7826086957E+03  4.2464131131E+00  7.4734106100E+00  1.4973242655E-01  1.4188662508E-01  4.9103436478E-01
  8.8795986622E+03  4.3076729336E+00  7.4481603293E+00  1.5489625040E-01  1.4657728609E-01  4.9413612336E-01
  8.9765886288E+03  4.3691786425E+00  7.4234769220E+00  1.6017900160E-01  1.5136380374E-01  4.9722385156E-01
  9.0735785953E+03  4.4309472552E+00  7.3994320544E+00  1.6560720020E-01  1.5626915076E-01  5.0029814686E-01
  9.1705685619E+03  4.4929913039E+00  7.3760732729E+00  1.7116675114E-01  1.6127995684E-01  5.0335959857E-01
  9.2675585284E+03  4.5552728488E+00  7.3532009252E+00  1.7685133455E-01  1.6638968841E-01  5.0640878596E-01
  9.3645484950E+03  4.6178308178E+00  7.3309892763E+00  1.8266240412E-01  1.7159901039E-01  5.0944621164E-01
  9.4615384615E+03  4.6806362982E+00  7.3092870665E+00  1.8860141489E-01  1.7690831437E-01  5.1247231516E-01
  9.5585284281E+03  4.7436841869E+00  7.2880602312E+00  1.9467171506E-01  1.8231971287E-01  5.1548753218E-01
  9.6555183946E+03  4.8070051690E+00  7.2674377926E+00  2.0087367007E-01  1.8783282608E-01  5.1849229020E-01
  9.7525083612E+03  4.8705510830E+00  7.2471908855E+00  2.0720809543E-01  1.9344730738E-01  5.2148694618E-01
  9.8494983278E+03  4.9343664387E+00  7.2275088169E+00  2.1367645585E-01  1.9916377835E-01  5.2447181511E-01
  9.9464882943E+03  4.9984144422E+00  7.2082193385E+00  2.2028021743E-01  2.0498245717E-01  5.2744721201E-01
  1.0043478261E+04  5.0627071747E+00  7.1893671625E+00  2.2703398254E-01  2.1091510825E-01  5.3041346399E-01
  1.0140468227E+04  5.1272507811E+00  7.1709642610E+00  2.3394333962E-01  2.1696553971E-01  5.3337081723E-01
  1.0237458194E+04  5.1920187198E+00  7.1528941817E+00  2.4099403566E-01  2.2312029889E-01  5.3631944720E-01
  1.0334448161E+04  5.2570560353E+00  7.1353169213E+00  2.4818757702E-01  2.2937994636E-01  5.3925953185E-01
  1.0431438127E+04  5.3223043439E+00  7.1180024368E+00  2.5552547159E-01  2.3574444111E-01  5.4219125183E-01
  1.0528428094E+04  5.3878308589E+00  7.1011807831E+00  2.6300922875E-01  2.4221443764E-01  5.4511479042E-01
  1.0625418060E+04  5.4535699207E+00  7.0846107976E+00  2.7064035939E-01  2.4878979003E-01  5.4803033343E-01
  1.0722408027E+04  5.5195761714E+00  7.0684662365E+00  2.7842037588E-01  2.5547104739E-01  5.5093804685E-01
  1.0819397993E+04  5.5858054143E+00  7.0525920648E+00  2.8635079203E-01  2.6225812982E-01  5.5383799879E-01
  1.0916387960E+04  5.6522929105E+00  7.0370898298E+00  2.9443312315E-01  2.6915143299E-01  5.5673023933E-01
  1.1013377926E+04  5.7190115685E+00  7.0218662254E+00  3.0266888594E-01  2.7615092625E-01  5.5961482282E-01
  1.1110367893E+04  5.7859819986E+00  7.0069737721E+00  3.1105959857E-01  2.8325687189E-01  5.6249180739E-01
  1.1207357860E+04  5.8531890886E+00  6.9923586597E+00  3.1962335300E-01  2.9048295165E-01  5.6536125479E-01
  1.1304347826E+04  5.9206443093E+00  6.9780454845E+00  3.2838966901E-01  2.9785219425E-01  5.6822322993E-01
  1.1401337793E+04  5.9883386097E+00  6.9639997180E+00  3.3731826004E-01  3.0532988019E-01  5.7107776365E-01
  1.1498327759E+04  6.0562806371E+00  6.9502371947E+00  3.4641070620E-01  3.1291611660E-01  5.7392482955E-01
  1.1595317726E+04  6.1244606656E+00  6.9367243386E+00  3.5566858929E-01  3.2061084157E-01  5.7676440171E-01
  1.1692307692E+04  6.1928916661E+00  6.9234855701E+00  3.6509349283E-01  3.2841414759E-01  5.7959645847E-01
  1.1789297659E+04  6.2615556590E+00  6.9104717009E+00  3.7468700202E-01  3.3632585627E-01  5.8242098221E-01
  1.1886287625E+04  6.3304779406E+00  6.8977313852E+00  3.8445070372E-01  3.4434610988E-01  5.8523795927E-01
  1.1983277592E+04  6.3996238324E+00  6.8851849106E+00  3.9438618642E-01  3.5247454199E-01  5.8804736755E-01
  1.2080267559E+04  6.4690398368E+00  6.8729192192E+00  4.0449504030E-01  3.6071142336E-01  5.9084913830E-01
  1.2177257525E+04  6.5386652397E+00  6.8608107143E+00  4.1477885714E-01  3.6905611307E-01  5.9364319627E-01
  1.2274247492E+04  6.6085775343E+00  6.8489971818E+00  4.2523923033E-01  3.7750910482E-01  5.9642947067E-01
  1.2371237458E+04  6.6786797196E+00  6.8372992393E+00  4.3587775488E-01  3.8606938063E-01  5.9920789505E-01
  1.2468227425E+04  6.7490910516E+00  6.8259166992E+00  4.4669602739E-01  3.9473776878E-01  6.0197840704E-01
  1.2565217391E+04  6.8196904724E+00  6.8146410911E+00  4.5770859962E-01  4.0352303497E-01  6.0474097864E-01
  1.2662207358E+04  6.8905822884E+00  6.8036334842E+00  4.6891111060E-01  4.1242109125E-01  6.0749557510E-01
  1.2759197324E+04  6.9616859480E+00  6.7927646015E+00  4.8029899878E-01  4.2142610664E-01  6.1024209856E-01
  1.2856187291E+04  7.0330568009E+00  6.7821082052E+00  4.9187388310E-01  4.3053826366E-01  6.1298045485E-01
  1.2953177258E+04  7.1046739051E+00  6.7716308509E+00  5.0363738414E-01  4.3975705047E-01  6.1571055406E-01
  1.3050167224E+04  7.1765228980E+00  6.7613055629E+00  5.1559112411E-01  4.4908195612E-01  6.1843231070E-01
  1.3147157191E+04  7.2486631753E+00  6.7512054698E+00  5.2773672684E-01  4.5851317850E-01  6.2114564244E-01
  1.3244147157E+04  7.3209903858E+00  6.7411945362E+00  5.4007581775E-01  4.6804929691E-01  6.2385042442E-01
  1.3341137124E+04  7.3936618730E+00  6.7314558587E+00  5.5261002388E-01  4.7769141820E-01  6.2654652178E-01
  1.3438127090E+04  7.4665224682E+00  6.7218039324E+00  5.6534097384E-01  4.8743757262E-01  6.2923380454E-01
  1.3535117057E+04  7.5396772821E+00  6.7123510497E+00  5.7827029780E-01  4.9728831621E-01  6.3191214747E-01
  1.3632107023E+04  7.6130816511E+00  6.7030455505E+00  5.9139962752E-01  5.0724272144E-01  6.3458143006E-01
  1.3729096990E+04  7.6867157878E+00  6.6938616023E+00  6.0476382357E-01  5.1732435659E-01  6.3724153635E-01
  1.3826086957E+04  7.7606745574E+00  6.6848905745E+00  6.1838990879E-01  5.2755176759E-01  6.3989235490E-01
  1.3923076923E+04  7.8348204597E+00  6.6759941561E+00  6.3222432715E-01  5.3788229084E-01  6.4253377864E-01
  1.4020066890E+04  7.9093068304E+00  6.6673115799E+00  6.4626877469E-01  5.4831696463E-01  6.4516570484E-01
  1.4117056856E+04  7.9840186103E+00  6.6587343600E+00  6.6052494928E-01  5.5885395701E-01  6.4778803316E-01
  1.4214046823E+04  8.0589830684E+00  6.6502824481E+00  6.7499455056E-01  5.6949290415E-01  6.5040063660E-01
  1.4311036789E+04  8.1342719135E+00  6.6420138143E+00  6.8967928001E-01  5.8023397127E-01  6.5300337652E-01
  1.4408026756E+04  8.2097484646E+00  6.6338112075E+00  7.0458084084E-01  5.9107493114E-01  6.5559612081E-01
  1.4505016722E+04  8.2855840513E+00  6.6258081278E+00  7.1970093806E-01  6.0201703600E-01  6.5817874227E-01
  1.4602006689E+04  8.3616499434E+00  6.6179005654E+00  7.3504127844E-01  6.1305810456E-01  6.6075111854E-01
  1.4698996656E+04  8.4379575175E+00  6.6100940318E+00  7.5060357050E-01  6.2419749561E-01  6.6331313206E-01
  1.4795986622E+04  8.5146244373E+00  6.6024720526E+00  7.6638952447E-01  6.3543587480E-01  6.6586466994E-01
  1.4892976589E+04  8.5914801985E+00  6.5949085766E+00  7.8240085234E-01  6.4677040480E-01  6.6840562388E-01
  1.4989966555E+04  8.6686734039E+00  6.5875039094E+00  7.9863926781E-01  6.5820208356E-01  6.7093589015E-01
  1.5086956522E+04  8.7461432759E+00  6.5802139932E+00  8.1515088584E-01  6.6975934837E-01  6.7345536864E-01
  1.5183946488E+04  8.8238023835E+00  6.5729787819E+00  8.3189979011E-01  6.8141442355E-01  6.7596394618E-01
  1.5280936455E+04  8.9018939034E+00  6.5659508601E+00  8.4888269299E-01  6.9316613980E-01  6.7846150155E-01
  1.5377926421E+04  8.9801813722E+00  6.5589782597E+00  8.6610134304E-01  7.0501059919E-01  6.8094791891E-01
  1.5474916388E+04  9.0587315548E+00  6.5520998974E+00  8.8355749067E-01  7.1694772969E-01  6.8342308734E-01
  1.5571906355E+04  9.1376610477E+00  6.5453824510E+00  9.0125288805E-01  7.2897819577E-01  6.8588690081E-01
  1.5668896321E+04  9.2167817647E+00  6.5387135378E+00  9.1918928919E-01  7.4109854105E-01  6.8833925804E-01
  1.5765886288E+04  9.2962395835E+00  6.5321732275E+00  9.3736844986E-01  7.5330977128E-01  6.9078006250E-01
  1.5862876254E+04  9.3760177097E+00  6.5257498214E+00  9.5579212760E-01  7.6561073456E-01  6.9320922226E-01
  1.5959866221E+04  9.4559879123E+00  6.5193718291E+00  9.7446208174E-01  7.7799863238E-01  6.9562664995E-01
  1.6056856187E+04  9.5363630838E+00  6.5131485543E+00  9.9338007336E-01  7.9047546936E-01  6.9803225769E-01
  1.6153846154E+04  9.6170064866E+00  6.5070070044E+00  1.0125478653E+00  8.0303832476E-01  7.0042594719E-01
  1.6250836120E+04  9.6978429725E+00  6.5009079584E+00  1.0319672220E+00  8.1568503180E-01  7.0280762307E-01
  1.6347826087E+04  9.7791436734E+00  6.4949818288E+00  1.0516399100E+00  8.2841854256E-01  7.0517719482E-01
  1.6444816054E+04  9.8606695392E+00  6.4891106977E+00  1.0715676971E+00  8.4123429813E-01  7.0753457674E-01
  1.6541806020E+04  9.9423925881E+00  6.4832806943E+00  1.0917523531E+00  8.5413074138E-01  7.0987968788E-01
  1.6638795987E+04  1.0024622403E+01  6.4776315192E+00  1.1121956494E+00  8.6711153682E-01  7.1221245187E-01
  1.6735785953E+04  1.0107048442E+01  6.4720200580E+00  1.1328993591E+00  8.8017084949E-01  7.1453279696E-01
  1.6832775920E+04  1.0189692849E+01  6.4664556226E+00  1.1538652571E+00  8.9330784421E-01  7.1684065582E-01
  1.6929765886E+04  1.0272839609E+01  6.4610584198E+00  1.1750951197E+00  9.0652592639E-01  7.1913596109E-01
  1.7026755853E+04  1.0356184038E+01  6.4556965154E+00  1.1965907253E+00  9.1981913823E-01  7.2141863874E-01
  1.7123745819E+04  1.0439752504E+01  6.4503803859E+00  1.2183538535E+00  9.3318669065E-01  7.2368861797E-01
  1.7220735786E+04  1.0523834766E+01  6.4452254769E+00  1.2403862858E+00  9.4663221616E-01  7.2594583268E-01
  1.7317725753E+04  1.0608116289E+01  6.4401036048E+00  1.2626898054E+00  9.6014939108E-01  7.2819022137E-01
  1.7414715719E+04  1.0692609542E+01  6.4350193688E+00  1.2852661969E+00  9.7373717339E-01  7.3042172705E-01
  1.7511705686E+04  1.0777646127E+01  6.4300976498E+00  1.3081398284E+00  9.8741290952E-01  7.3264029717E-01
  1.7608695652E+04  1.0862883709E+01  6.4252068482E+00  1.3314575670E+00  1.0012513591E+00  7.3484588349E-01
  1.7705685619E+04  1.0948321650E+01  6.4203466011E+00  1.3550591957E+00  1.0151581672E+00  7.3703845647E-01
  1.7802675585E+04  1.1034308389E+01  6.4156419514E+00  1.3789465827E+00  1.0291382670E+00  7.3921803743E-01
  1.7899665552E+04  1.1120519273E+01  6.4109739449E+00  1.4031215984E+00  1.0431847138E+00  7.4138459028E-01
  1.7996655518E+04  1.1206932386E+01  6.4063345329E+00  1.4275861152E+00  1.0572957871E+00  7.4353807510E-01
  1.8093645485E+04  1.1293850022E+01  6.4018275011E+00  1.4523420072E+00  1.0714757768E+00  7.4567845613E-01
  1.8190635452E+04  1.1381050514E+01  6.3973745771E+00  1.4773911505E+00  1.0857194017E+00  7.4780570160E-01
  1.8287625418E+04  1.1468455210E+01  6.3929484052E+00  1.5027354232E+00  1.1000238657E+00  7.4991978372E-01
  1.8384615385E+04  1.1556295793E+01  6.3886251395E+00  1.5283767050E+00  1.1143922829E+00  7.5202067854E-01
  1.8481605351E+04  1.1644502456E+01  6.3843800067E+00  1.5543168778E+00  1.1288221187E+00  7.5410835722E-01
  1.8578595318E+04  1.1732915403E+01  6.3801598926E+00  1.5805578252E+00  1.1433089631E+00  7.5618275682E-01
  1.8675585284E+04  1.1821669052E+01  6.3760071089E+00  1.6071014326E+00  1.1578541288E+00  7.5824387683E-01
  1.8772575251E+04  1.1910898711E+01  6.3719628667E+00  1.6339526000E+00  1.1724606475E+00  7.6029173018E-01
  1.8869565217E+04  1.2000336840E+01  6.3679420112E+00  1.6611118492E+00  1.1871211295E+00  7.6232633239E-01
  1.8966555184E+04  1.2089991666E+01  6.3639469543E+00  1.6885795624E+00  1.2018335747E+00  7.6434770145E-01
  1.9063545151E+04  1.2180261394E+01  6.3600970665E+00  1.7163576343E+00  1.2166049468E+00  7.6635585775E-01
  1.9160535117E+04  1.2270741885E+01  6.3562690276E+00  1.7444479617E+00  1.2314256178E+00  7.6835082402E-01
  1.9257525084E+04  1.2361432560E+01  6.3524626038E+00  1.7728524430E+00  1.2462941833E+00  7.7033261227E-01
  1.9354515050E+04  1.2452611020E+01  6.3487577067E+00  1.8015729783E+00  1.2612152528E+00  7.7230119312E-01
  1.9451505017E+04  1.2544151290E+01  6.3451163756E+00  1.8306114698E+00  1.2761849075E+00  7.7425655162E-01
  1.9548494983E+04  1.2635904152E+01  6.3414952289E+00  1.8599698213E+00  1.2911985684E+00  7.7619867794E-01
  1.9645484950E+04  1.2727966400E+01  6.3379210002E+00  1.8896499385E+00  1.3062569977E+00  7.7812756596E-01
  1.9742474916E+04  1.2820584094E+01  6.3344605795E+00  1.9196537289E+00  1.3213644364E+00  7.8004321323E-01
  1.9839464883E+04  1.2913416891E+01  6.3310189930E+00  1.9499831017E+00  1.3365120023E+00  7.8194562081E-01
  1.9936454849E+04  1.3006464236E+01  6.3275960467E+00  1.9806399678E+00  1.3516982907E+00  7.8383479314E-01
  2.0033444816E+04  1.3100056984E+01  6.3242791726E+00  2.0116415737E+00  1.3669366792E+00  7.8571073477E-01
  2.0130434783E+04  1.3193986957E+01  6.3210116999E+00  2.0430044493E+00  1.3822276665E+00  7.8757344795E-01
  2.0227424749E+04  1.3288134095E+01  6.3177616085E+00  2.0747017860E+00  1.3975537195E+00  7.8942293787E-01
  2.0324414716E+04  1.3382583093E+01  6.3145506100E+00  2.1067355177E+00  1.4129154820E+00  7.9125921317E-01
  2.0421404682E+04  1.3477623606E+01  6.3114519910E+00  2.1391075797E+00  1.4283186726E+00  7.9308228580E-01
  2.0518394649E+04  1.3572883962E+01  6.3083695637E+00  2.1718199094E+00  1.4437530932E+00  7.9489217098E-01
  2.0615384615E+04  1.3668363625E+01  6.3053031673E+00  2.2048744459E+00  1.4592173529E+00  7.9668888698E-01
  2.0712374582E+04  1.3764330629E+01  6.3023193283E+00  2.2382731300E+00  1.4747167984E+00  7.9847243391E-01
  2.0809364548E+04  1.3860716234E+01  6.2993995969E+00  2.2720179043E+00  1.4902485408E+00  8.0024284006E-01
  2.0906354515E+04  1.3957323878E+01  6.2964947857E+00  2.3061107134E+00  1.5058063430E+00  8.0200016228E-01
  2.1003344482E+04  1.4054153040E+01  6.2936047498E+00  2.3405535033E+00  1.5213888329E+00  8.0374445886E-01
  2.1100334448E+04  1.4151631451E+01  6.2908322251E+00  2.3753482221E+00  1.5370058363E+00  8.0547578950E-01
  2.1197324415E+04  1.4249379133E+01  6.2880843274E+00  2.4104968194E+00  1.5526463235E+00  8.0719421518E-01
  2.1294314381E+04  1.4347351119E+01  6.2853501663E+00  2.4460012466E+00  1.5683077913E+00  8.0889979807E-01
  2.1391304348E+04  1.4445628624E+01  6.2826487536E+00  2.4818634571E+00  1.5839910915E+00  8.1059257990E-01
  2.1488294314E+04  1.4544528373E+01  6.2800533158E+00  2.5180854056E+00  1.5997035741E+00  8.1227257841E-01
  2.1585284281E+04  1.4643655258E+01  6.2774706315E+00  2.5546690489E+00  1.6154333954E+00  8.1393981763E-01
  2.1682274247E+04  1.4743008776E+01  6.2749005811E+00  2.5916163452E+00  1.6311792300E+00  8.1559432459E-01
  2.1779264214E+04  1.4842769002E+01  6.2723840030E+00  2.6289292548E+00  1.6469448064E+00  8.1723612918E-01
  2.1876254181E+04  1.4943062830E+01  6.2699485988E+00  2.6666097392E+00  1.6627325549E+00  8.1886526403E-01
  2.1973244147E+04  1.5043586177E+01  6.2675249076E+00  2.7046597621E+00  1.6785327720E+00  8.2048176449E-01
  2.2070234114E+04  1.5144338551E+01  6.2651128218E+00  2.7430812886E+00  1.6943441649E+00  8.2208566843E-01
  2.2167224080E+04  1.5245569582E+01  6.2627671951E+00  2.7818762856E+00  1.7101726947E+00  8.2367701625E-01
  2.2264214047E+04  1.5347274808E+01  6.2604859040E+00  2.8210467216E+00  1.7260171685E+00  8.2525585068E-01
  2.2361204013E+04  1.5449212001E+01  6.2582153550E+00  2.8605960029E+00  1.7418699154E+00  8.2682221679E-01
  2.2458193980E+04  1.5551380679E+01  6.2559554511E+00  2.9008028534E+00  1.7578312948E+00  8.2837616183E-01
  2.2555183946E+04  1.5654068707E+01  6.2537675073E+00  2.9413975996E+00  1.7738069572E+00  8.2991773517E-01
  2.2652173913E+04  1.5757202769E+01  6.2516347559E+00  2.9823822873E+00  1.7897936652E+00  8.3144698689E-01
  2.2749163880E+04  1.5860571309E+01  6.2495118395E+00  3.0237589641E+00  1.8057838961E+00  8.3296396029E-01
  2.2846153846E+04  1.5964173857E+01  6.2473986711E+00  3.0655296794E+00  1.8217764084E+00  8.3446869737E-01
  2.2943143813E+04  1.6068303124E+01  6.2453557123E+00  3.1076964846E+00  1.8377790486E+00  8.3596124251E-01
  2.3040133779E+04  1.6172883572E+01  6.2433662482E+00  3.1502614328E+00  1.8537884798E+00  8.3744164244E-01
  2.3137123746E+04  1.6277701072E+01  6.2413857711E+00  3.1932265792E+00  1.8697969330E+00  8.3890994606E-01
  2.3234113712E+04  1.6382755166E+01  6.2394142031E+00  3.2365939807E+00  1.8858032108E+00  8.4036620440E-01
  2.3331103679E+04  1.6488307915E+01  6.2375040614E+00  3.2803656961E+00  1.9018145089E+00  8.4181047053E-01
  2.3428093645E+04  1.6594352401E+01  6.2356529299E+00  3.3245437860E+00  1.9178296432E+00  8.4324279946E-01
  2.3525083612E+04  1.6700636577E+01  6.2338099920E+00  3.3691303130E+00  1.9338394823E+00  8.4466324803E-01
  2.3622073579E+04  1.6807159994E+01  6.2319751780E+00  3.4141273415E+00  1.9498428755E+00  8.4607187486E-01
  2.3719063545E+04  1.6914116411E+01  6.2301861791E+00  3.4595369375E+00  1.9658450670E+00  8.4746874024E-01
  2.3816053512E+04  1.7021642685E+01  6.2284687016E+00  3.5053611691E+00  1.9818496197E+00  8.4885390606E-01
  2.3913043478E+04  1.7129411349E+01  6.2267586748E+00  3.5516021061E+00  1.9978447526E+00  8.5022743210E-01
  2.4010033445E+04  1.7237421962E+01  6.2250560364E+00  3.5982618202E+00  2.0138293643E+00  8.5158937234E-01
  2.4107023411E+04  1.7345760121E+01  6.2233769655E+00  3.6453423847E+00  2.0298052713E+00  8.5293978171E-01
  2.4204013378E+04  1.7454786020E+01  6.2217887199E+00  3.6928458749E+00  2.0457837251E+00  8.5427871704E-01
  2.4301003344E+04  1.7564057070E+01  6.2202072288E+00  3.7407743678E+00  2.0617488349E+00  8.5560623691E-01
  2.4397993311E+04  1.7673572841E+01  6.2186324368E+00  3.7891299424E+00  2.0776995499E+00  8.5692240158E-01
  2.4494983278E+04  1.7783332905E+01  6.2170642891E+00  3.8379146791E+00  2.0936348323E+00  8.5822727291E-01
  2.4591973244E+04  1.7893812091E+01  6.2155893104E+00  3.8871306604E+00  2.1095702359E+00  8.5952091428E-01
  2.4688963211E+04  1.8004603507E+01  6.2141322149E+00  3.9367799704E+00  2.1254908036E+00  8.6080339050E-01
  2.4785953177E+04  1.8115642477E+01  6.2126811719E+00  3.9868646951E+00  2.1413933101E+00  8.6207476773E-01
  2.4882943144E+04  1.8226928581E+01  6.2112361327E+00  4.0373869222E+00  2.1572767701E+00  8.6333511340E-01
  2.4979933110E+04  1.8338748063E+01  6.2098478725E+00  4.0883487410E+00  2.1731504607E+00  8.6458449708E-01
  2.5076923077E+04  1.8451076885E+01  6.2085112216E+00  4.1398484649E+00  2.1890396680E+00  8.6582301779E-01
  2.5173913043E+04  1.8563656144E+01  6.2071800167E+00  4.1918194261E+00  2.2049143948E+00  8.6705075668E-01
  2.5270903010E+04  1.8676485431E+01  6.2058542145E+00  4.2442389154E+00  2.2207666859E+00  8.6826778073E-01
  2.5367892977E+04  1.8789615686E+01  6.2045427265E+00  4.2971090563E+00  2.2365975064E+00  8.6947415805E-01
  2.5464882943E+04  1.8903492201E+01  6.2033225817E+00  4.3504319740E+00  2.2524224883E+00  8.7066995781E-01
  2.5561872910E+04  1.9017622034E+01  6.2021073140E+00  4.4042097956E+00  2.2682227009E+00  8.7185525015E-01
  2.5658862876E+04  1.9132004786E+01  6.2008968854E+00  4.4584446501E+00  2.2839972587E+00  8.7303010614E-01
  2.5755852843E+04  1.9246640056E+01  6.1996912584E+00  4.5131386681E+00  2.2997452898E+00  8.7419459769E-01
  2.5852842809E+04  1.9361847300E+01  6.1985451737E+00  4.5682939823E+00  2.3154781541E+00  8.7534879751E-01
  2.5949832776E+04  1.9477534902E+01  6.1974420636E+00  4.6239127270E+00  2.3311917038E+00  8.7649277903E-01
  2.6046822742E+04  1.9593478284E+01  6.1963432640E+00  4.6799970384E+00  2.3468765911E+00  8.7762661636E-01
  2.6143812709E+04  1.9709677056E+01  6.1952487421E+00  4.7365490543E+00  2.3625319982E+00  8.7875037894E-01
  2.6240802676E+04  1.9826131976E+01  6.1941586593E+00  4.7935709144E+00  2.3781571655E+00  8.7986412315E-01
  2.6337792642E+04  1.9943384117E+01  6.1931641158E+00  4.8510647603E+00  2.3937727192E+00  8.8096791263E-01
  2.6434782609E+04  2.0060894872E+01  6.1921733869E+00  4.9090327353E+00  2.4093568134E+00  8.8206181253E-01
  2.6531772575E+04  2.0178663861E+01  6.1911864440E+00  4.9674769842E+00  2.4249086836E+00  8.8314588904E-01
  2.6628762542E+04  2.0296690703E+01  6.1902032588E+00  5.0263996540E+00  2.4404275791E+00  8.8422020928E-01
  2.6725752508E+04  2.0415157733E+01  6.1892542289E+00  5.0858028932E+00  2.4559201971E+00  8.8528484129E-01
  2.6822742475E+04  2.0534242191E+01  6.1883681867E+00  5.1456888521E+00  2.4713931829E+00  8.8633985392E-01
  2.6919732441E+04  2.0653587695E+01  6.1874854689E+00  5.2060596827E+00  2.4868314087E+00  8.8738531679E-01
  2.7016722408E+04  2.0773193875E+01  6.1866060509E+00  5.2669175388E+00  2.5022341765E+00  8.8842130020E-01
  2.7113712375E+04  2.0893060361E+01  6.1857299086E+00  5.3282645760E+00  2.5176008016E+00  8.8944787514E-01
  2.7210702341E+04  2.1013506669E+01  6.1849094368E+00  5.3901029514E+00  2.5329440517E+00  8.9046511243E-01
  2.7307692308E+04  2.1134434576E+01  6.1841277512E+00  5.4524348242E+00  2.5482593181E+00  8.9147307864E-01
  2.7404682274E+04  2.1255625950E+01  6.1833489353E+00  5.5152656563E+00  2.5635375595E+00  8.9247183908E-01
  2.7501672241E+04  2.1377080428E+01  6.1825729684E+00  5.5786084485E+00  2.5787804356E+00  8.9346145986E-01
  2.7598662207E+04  2.1498797652E+01  6.1817998302E+00  5.6424515802E+00  2.5939843135E+00  8.9444200785E-01
  2.7695652174E+04  2.1621189406E+01  6.1810960047E+00  5.7067972205E+00  2.6091664377E+00  8.9541355062E-01
  2.7792642140E+04  2.1743971419E+01  6.1804147749E+00  5.7716475405E+00  2.6243140845E+00  8.9637615638E-01
  2.7889632107E+04  2.1867019305E+01  6.1797359929E+00  5.8370047130E+00  2.6394213204E+00  8.9732989392E-01
  2.7986622074E+04  2.1990332711E+01  6.1790596416E+00  5.9028709124E+00  2.6544875746E+00  8.9827483257E-01
  2.8083612040E+04  2.2113911288E+01  6.1783857038E+00  5.9692483147E+00  2.6695122890E+00  8.9921104211E-01
  2.8180602007E+04  2.2238213757E+01  6.1777871556E+00  6.0361390980E+00  2.6845153910E+00  9.0013859275E-01
  2.8277591973E+04  2.2362860054E+01  6.1772027063E+00  6.1035454416E+00  2.6994795818E+00  9.0105755294E-01
  2.8374581940E+04  2.2487774615E+01  6.1766203132E+00  6.1714695268E+00  2.7144009975E+00  9.0196798755E-01
  2.8471571906E+04  2.2612957098E+01  6.1760399620E+00  6.2399135365E+00  2.7292791284E+00  9.0286996161E-01
  2.8568561873E+04  2.2738407161E+01  6.1754616388E+00  6.3088796553E+00  2.7441134767E+00  9.0376354075E-01
  2.8665551839E+04  2.2864584827E+01  6.1749575046E+00  6.3783700694E+00  2.7589246676E+00  9.0464879110E-01
  2.8762541806E+04  2.2991105108E+01  6.1744663693E+00  6.4483869668E+00  2.7736947476E+00  9.0552577929E-01
  2.8859531773E+04  2.3117896027E+01  6.1739769261E+00  6.5189325369E+00  2.7884199800E+00  9.0639457233E-01
  2.8956521739E+04  2.3244957251E+01  6.1734891638E+00  6.5900089712E+00  2.8030999133E+00  9.0725523766E-01
  2.9053511706E+04  2.3372288449E+01  6.1730030707E+00  6.6616184623E+00  2.8177341076E+00  9.0810784299E-01
  2.9150501672E+04  2.3500305118E+01  6.1725829598E+00  6.7337632050E+00  2.8323417188E+00  9.0895245636E-01
  2.9247491639E+04  2.3628708601E+01  6.1721818652E+00  6.8064453954E+00  2.8469084226E+00  9.0978914485E-01
  2.9344481605E+04  2.3757385079E+01  6.1717821244E+00  6.8796672313E+00  2.8614284843E+00  9.1061797200E-01
  2.9441471572E+04  2.3886334227E+01  6.1713837283E+00  6.9534309122E+00  2.8759015081E+00  9.1143900100E-01
  2.9538461538E+04  2.4015555723E+01  6.1709866682E+00  7.0277386393E+00  2.8903271095E+00  9.1225229546E-01
  2.9635451505E+04  2.4145374636E+01  6.1706406308E+00  7.1025926152E+00  2.9047206359E+00  9.1305791936E-01
  2.9732441472E+04  2.4275670056E+01  6.1703264828E+00  7.1779950442E+00  2.9190760192E+00  9.1385593701E-01
  2.9829431438E+04  2.4406240809E+01  6.1700133738E+00  7.2539481325E+00  2.9333832299E+00  9.1464641301E-01
  2.9926421405E+04  2.4537086577E+01  6.1697012970E+00  7.3304540876E+00  2.9476419252E+00  9.1542941218E-01
  3.0023411371E+04  2.4668207047E+01  6.1693902457E+00  7.4076309220E+00  2.9618702864E+00  9.1620499955E-01
  3.0120401338E+04  2.4799790726E+01  6.1691087181E+00  7.4857342787E+00  2.9761167784E+00  9.1697324049E-01
  3.0217391304E+04  2.4931985572E+01  6.1688785150E+00  7.5644056973E+00  2.9903301910E+00  9.1773420579E-01
  3.0314381271E+04  2.5064458061E+01  6.1686490581E+00  7.6436474624E+00  3.0044937529E+00  9.1848795777E-01
  3.0411371237E+04  2.5197207884E+01  6.1684203427E+00  7.7234618601E+00  3.0186071636E+00  9.1923455441E-01
  3.0508361204E+04  2.5330234736E+01  6.1681923639E+00  7.8038511785E+00  3.0326701325E+00  9.1997405409E-01
  3.0605351171E+04  2.5463545368E+01  6.1679661725E+00  7.8848177074E+00  3.0466827378E+00  9.2070651560E-01
  3.0702341137E+04  2.5597644711E+01  6.1678168916E+00  7.9663637385E+00  3.0606704391E+00  9.2143199808E-01
  3.0799331104E+04  2.5732023966E+01  6.1676680851E+00  8.0484915652E+00  3.0746072085E+00  9.2215056092E-01
  3.0896321070E+04  2.5866682832E+01  6.1675197501E+00  8.1312034825E+00  3.0884927932E+00  9.2286226382E-01
  3.0993311037E+04  2.6001621011E+01  6.1673718835E+00  8.2145017875E+00  3.1023269499E+00  9.2356716666E-01
  3.1090301003E+04  2.6136838206E+01  6.1672244825E+00  8.2983887788E+00  3.1161094449E+00  9.2426532951E-01
  3.1187290970E+04  2.6272628643E+01  6.1671209784E+00  8.3828667568E+00  3.1298554207E+00  9.2495681257E-01
