#[MATERIAL DEFINITION FOR MC-GPU: interaction mean free path and sampling data from PENELOPE 2006]
#[MATERIAL NAME]
# Lung_4                                                        
#[NOMINAL DENSITY (g/cm^3)]
#   0.75269500
#[NUMBER OF DATA VALUES]
#   1495
#[MEAN FREE PATHS (cm) (ie, average distance between interactions)]
#[Energy (eV)     | Rayleigh        | Compton         | Photoelectric   | TOTAL (+pair prod) (cm) | Rayleigh: max cumul prob F^2]
  5.0000000000E+03  2.4686915353E+00  1.1223643771E+01  3.1434894229E-02  3.0954047930E-02  3.4460286597E-01
  5.0969899666E+03  2.5235157475E+00  1.1094023806E+01  3.3303468861E-02  3.2772579972E-02  3.4955801519E-01
  5.1939799331E+03  2.5789578032E+00  1.0971010067E+01  3.5244602657E-02  3.4659592394E-02  3.5440638475E-01
  5.2909698997E+03  2.6350051107E+00  1.0854149971E+01  3.7259671220E-02  3.6616213643E-02  3.5915274853E-01
  5.3879598662E+03  2.6916448818E+00  1.0743027849E+01  3.9350049727E-02  3.8643561291E-02  3.6380160768E-01
  5.4849498328E+03  2.7488641705E+00  1.0637261365E+01  4.1518458330E-02  4.0744037433E-02  3.6835756168E-01
  5.5819397993E+03  2.8066499121E+00  1.0536498352E+01  4.3781307319E-02  4.2933190544E-02  3.7282508075E-01
  5.6789297659E+03  2.8649889629E+00  1.0440413999E+01  4.6125156016E-02  4.5197808351E-02  3.7720833371E-01
  5.7759197324E+03  2.9238681410E+00  1.0348708349E+01  4.8551954368E-02  4.7539506451E-02  3.8151140258E-01
  5.8729096990E+03  2.9832742674E+00  1.0261104061E+01  5.1063343457E-02  4.9959589154E-02  3.8573831165E-01
  5.9698996656E+03  3.0431942138E+00  1.0177344419E+01  5.3660151517E-02  5.2458569700E-02  3.8989282278E-01
  6.0668896321E+03  3.1036152661E+00  1.0097191247E+01  5.6352952957E-02  5.5046251332E-02  3.9397849517E-01
  6.1638795987E+03  3.1645257351E+00  1.0020422850E+01  5.9139088647E-02  5.7719760204E-02  3.9799890948E-01
  6.2608695652E+03  3.2259149364E+00  9.9468327277E+00  6.2016093147E-02  6.0476417964E-02  4.0195747119E-01
  6.3578595318E+03  3.2877724012E+00  9.8762290562E+00  6.4985446457E-02  6.3317302474E-02  4.0585737300E-01
  6.4548494983E+03  3.3501042874E+00  9.8085233569E+00  6.8048629131E-02  6.6243487794E-02  4.0970161596E-01
  6.5518394649E+03  3.4129030353E+00  9.7435641540E+00  7.1207251330E-02  6.9256148993E-02  4.1349303564E-01
  6.6488294314E+03  3.4761410544E+00  9.6811017902E+00  7.4462724593E-02  7.2356243111E-02  4.1723442986E-01
  6.7458193980E+03  3.5398081310E+00  9.6209908315E+00  7.7816486347E-02  7.5544746391E-02  4.2092846339E-01
  6.8428093645E+03  3.6038943410E+00  9.5630957990E+00  8.1270019728E-02  7.8822662204E-02  4.2457764084E-01
  6.9397993311E+03  3.6683900893E+00  9.5072904325E+00  8.4824808368E-02  8.2190977896E-02  4.2818433642E-01
  7.0367892977E+03  3.7332877010E+00  9.4534655858E+00  8.8496602431E-02  8.5664033478E-02  4.3175080644E-01
  7.1337792642E+03  3.7986237195E+00  9.4017591106E+00  9.2297823998E-02  8.9252978154E-02  4.3527921048E-01
  7.2307692308E+03  3.8643440731E+00  9.3518107502E+00  9.6207518017E-02  9.2937620222E-02  4.3877156993E-01
  7.3277591973E+03  3.9304416910E+00  9.3035234760E+00  1.0022725602E-01  9.6718941295E-02  4.4222978268E-01
  7.4247491639E+03  3.9969098095E+00  9.2568067916E+00  1.0435861071E-01  1.0059790493E-01  4.4565566559E-01
  7.5217391304E+03  4.0637660785E+00  9.2117058167E+00  1.0860315596E-01  1.0457548896E-01  4.4905096215E-01
  7.6187290970E+03  4.1310097240E+00  9.1681729888E+00  1.1296246678E-01  1.0865263454E-01  4.5241733342E-01
  7.7157190635E+03  4.1986033222E+00  9.1259670006E+00  1.1743811928E-01  1.1283020962E-01  4.5575628336E-01
  7.8127090301E+03  4.2665410001E+00  9.0850185170E+00  1.2203169072E-01  1.1710910219E-01  4.5906922910E-01
  7.9096989967E+03  4.3348506361E+00  9.0454434326E+00  1.2674475941E-01  1.2149023932E-01  4.6235754081E-01
  8.0066889632E+03  4.4035145022E+00  9.0071198296E+00  1.3158060807E-01  1.2597601970E-01  4.6562254557E-01
  8.1036789298E+03  4.4725039946E+00  8.9698625063E+00  1.3656294475E-01  1.3058745455E-01  4.6886547678E-01
  8.2006688963E+03  4.5418244144E+00  8.9336709345E+00  1.4167111509E-01  1.3530492834E-01  4.7208742869E-01
  8.2976588629E+03  4.6115110414E+00  8.8987022720E+00  1.4690674597E-01  1.4012934608E-01  4.7528945535E-01
  8.3946488294E+03  4.6815095224E+00  8.8646417611E+00  1.5227146566E-01  1.4506140010E-01  4.7847258534E-01
  8.4916387960E+03  4.7518181762E+00  8.8314567003E+00  1.5776704645E-01  1.5010199473E-01  4.8163780781E-01
  8.5886287625E+03  4.8224905908E+00  8.7994005353E+00  1.6339708656E-01  1.5525380429E-01  4.8478598200E-01
  8.6856187291E+03  4.8934622306E+00  8.7681193878E+00  1.6916125390E-01  1.6051562679E-01  4.8791790626E-01
  8.7826086957E+03  4.9647369973E+00  8.7376138787E+00  1.7506118646E-01  1.6588818803E-01  4.9103436478E-01
  8.8795986622E+03  5.0363595383E+00  8.7080922567E+00  1.8109852353E-01  1.7137232197E-01  4.9413612336E-01
  8.9765886288E+03  5.1082695623E+00  8.6792334004E+00  1.8727490573E-01  1.7696852767E-01  4.9722385156E-01
  9.0735785953E+03  5.1804869629E+00  8.6511210994E+00  1.9362133923E-01  1.8270366392E-01  5.0029814686E-01
  9.1705685619E+03  5.2530263921E+00  8.6238109429E+00  2.0012134464E-01  1.8856209872E-01  5.0335959857E-01
  9.2675585284E+03  5.3258434926E+00  8.5970695054E+00  2.0676753304E-01  1.9453619326E-01  5.0640878596E-01
  9.3645484950E+03  5.3989837771E+00  8.5711005307E+00  2.1356160401E-01  2.0062672493E-01  5.0944621164E-01
  9.4615384615E+03  5.4724134421E+00  8.5457271718E+00  2.2050525875E-01  2.0683415157E-01  5.1247231516E-01
  9.5585284281E+03  5.5461265211E+00  8.5209096018E+00  2.2760241181E-01  2.1316094306E-01  5.1548753218E-01
  9.6555183946E+03  5.6201588901E+00  8.4967986684E+00  2.3485349047E-01  2.1960665534E-01  5.1849229020E-01
  9.7525083612E+03  5.6944542406E+00  8.4731267914E+00  2.4225944818E-01  2.2617088315E-01  5.2148694618E-01
  9.8494983278E+03  5.7690646115E+00  8.4501153011E+00  2.4982199743E-01  2.3285435320E-01  5.2447181511E-01
  9.9464882943E+03  5.8439469849E+00  8.4275628117E+00  2.5754285231E-01  2.3965732061E-01  5.2744721201E-01
  1.0043478261E+04  5.9191154858E+00  8.4055215986E+00  2.6543908536E-01  2.4659353985E-01  5.3041346399E-01
  1.0140468227E+04  5.9945772984E+00  8.3840056596E+00  2.7351723032E-01  2.5366746321E-01  5.3337081723E-01
  1.0237458194E+04  6.0703013914E+00  8.3628788430E+00  2.8176062317E-01  2.6086336238E-01  5.3631944720E-01
  1.0334448161E+04  6.1463404290E+00  8.3423282105E+00  2.9017102507E-01  2.6818189276E-01  5.3925953185E-01
  1.0431438127E+04  6.2226261514E+00  8.3220848052E+00  2.9875019899E-01  2.7562300641E-01  5.4219125183E-01
  1.0528428094E+04  6.2992371415E+00  8.3024175980E+00  3.0749990965E-01  2.8318746853E-01  5.4511479042E-01
  1.0625418060E+04  6.3760966330E+00  8.2830446312E+00  3.1642192350E-01  2.9087510852E-01  5.4803033343E-01
  1.0722408027E+04  6.4532685110E+00  8.2641690537E+00  3.2551800875E-01  2.9868656839E-01  5.5093804685E-01
  1.0819397993E+04  6.5307011027E+00  8.2456096048E+00  3.3478993531E-01  3.0662175472E-01  5.5383799879E-01
  1.0916387960E+04  6.6084356339E+00  8.2274850093E+00  3.4423947477E-01  3.1468113009E-01  5.5673023933E-01
  1.1013377926E+04  6.6864404301E+00  8.2096861778E+00  3.5386840045E-01  3.2286465868E-01  5.5961482282E-01
  1.1110367893E+04  6.7647395882E+00  8.1922745148E+00  3.6367848729E-01  3.3117264716E-01  5.6249180739E-01
  1.1207357860E+04  6.8433154398E+00  8.1751871077E+00  3.7369088771E-01  3.3962109167E-01  5.6536125479E-01
  1.1304347826E+04  6.9221813958E+00  8.1584527137E+00  3.8394011507E-01  3.4823691646E-01  5.6822322993E-01
  1.1401337793E+04  7.0013268743E+00  8.1420309632E+00  3.9437906791E-01  3.5697952889E-01  5.7107776365E-01
  1.1498327759E+04  7.0807619853E+00  8.1259403694E+00  4.0500959363E-01  3.6584905420E-01  5.7392482955E-01
  1.1595317726E+04  7.1604753578E+00  8.1101416765E+00  4.1583354163E-01  3.7484542000E-01  5.7676440171E-01
  1.1692307692E+04  7.2404821566E+00  8.0946634359E+00  4.2685276328E-01  3.8396873444E-01  5.7959645847E-01
  1.1789297659E+04  7.3207613610E+00  8.0794481386E+00  4.3806911193E-01  3.9321878896E-01  5.8242098221E-01
  1.1886287625E+04  7.4013425462E+00  8.0645526692E+00  4.4948444288E-01  4.0259574989E-01  5.8523795927E-01
  1.1983277592E+04  7.4821851674E+00  8.0498838311E+00  4.6110061335E-01  4.1209918880E-01  5.8804736755E-01
  1.2080267559E+04  7.5633435937E+00  8.0355432735E+00  4.7291948248E-01  4.2172942227E-01  5.9084913830E-01
  1.2177257525E+04  7.6447468402E+00  8.0213864920E+00  4.8494291132E-01  4.3148570096E-01  5.9364319627E-01
  1.2274247492E+04  7.7264855092E+00  8.0075745806E+00  4.9717276282E-01  4.4136860207E-01  5.9642947067E-01
  1.2371237458E+04  7.8084461908E+00  7.9938978123E+00  5.0961090180E-01  4.5137693543E-01  5.9920789505E-01
  1.2468227425E+04  7.8907683143E+00  7.9805898000E+00  5.2225919492E-01  4.6151166943E-01  6.0197840704E-01
  1.2565217391E+04  7.9733103438E+00  7.9674068084E+00  5.3513465553E-01  4.7178305258E-01  6.0474097864E-01
  1.2662207358E+04  8.0561942301E+00  7.9545371530E+00  5.4823218496E-01  4.8218630540E-01  6.0749557510E-01
  1.2759197324E+04  8.1393257955E+00  7.9418296884E+00  5.6154645003E-01  4.9271461055E-01  6.1024209856E-01
  1.2856187291E+04  8.2227697527E+00  7.9293706546E+00  5.7507934353E-01  5.0336818144E-01  6.1298045485E-01
  1.2953177258E+04  8.3065016170E+00  7.9171209495E+00  5.8883276018E-01  5.1414641962E-01  6.1571055406E-01
  1.3050167224E+04  8.3905045965E+00  7.9050490342E+00  6.0280859661E-01  5.2504872772E-01  6.1843231070E-01
  1.3147157191E+04  8.4748481340E+00  7.8932404078E+00  6.1700875133E-01  5.3607533709E-01  6.2114564244E-01
  1.3244147157E+04  8.5594102263E+00  7.8815360231E+00  6.3143512474E-01  5.4722458674E-01  6.2385042442E-01
  1.3341137124E+04  8.6443748333E+00  7.8701499495E+00  6.4608961907E-01  5.5849777072E-01  6.2654652178E-01
  1.3438127090E+04  8.7295605378E+00  7.8588653019E+00  6.6097413844E-01  5.6989258610E-01  6.2923380454E-01
  1.3535117057E+04  8.8150902310E+00  7.8478133681E+00  6.7609058880E-01  5.8140968297E-01  6.3191214747E-01
  1.3632107023E+04  8.9009116943E+00  7.8369337492E+00  6.9144087792E-01  5.9304797689E-01  6.3458143006E-01
  1.3729096990E+04  8.9870017926E+00  7.8261962429E+00  7.0706576340E-01  6.0483502296E-01  6.3724153635E-01
  1.3826086957E+04  9.0734714389E+00  7.8157076747E+00  7.2299683925E-01  6.1679250435E-01  6.3989235490E-01
  1.3923076923E+04  9.1601598732E+00  7.8053063369E+00  7.3917148991E-01  6.2887054049E-01  6.4253377864E-01
  1.4020066890E+04  9.2472463697E+00  7.7951550148E+00  7.5559169833E-01  6.4107034527E-01  6.4516570484E-01
  1.4117056856E+04  9.3345964055E+00  7.7851268710E+00  7.7225944956E-01  6.5338977687E-01  6.4778803316E-01
  1.4214046823E+04  9.4222418627E+00  7.7752452325E+00  7.8917673079E-01  6.6582840992E-01  6.5040063660E-01
  1.4311036789E+04  9.5102665802E+00  7.7655778753E+00  8.0634553128E-01  6.7838643757E-01  6.5300337652E-01
  1.4408026756E+04  9.5985107561E+00  7.7559877143E+00  8.2376784240E-01  6.9106125586E-01  6.5559612081E-01
  1.4505016722E+04  9.6871747021E+00  7.7466308324E+00  8.4144565756E-01  7.0385432882E-01  6.5817874227E-01
  1.4602006689E+04  9.7761079120E+00  7.7373856256E+00  8.5938097224E-01  7.1676310622E-01  6.6075111854E-01
  1.4698996656E+04  9.8653236869E+00  7.7282585376E+00  8.7757578396E-01  7.2978683833E-01  6.6331313206E-01
  1.4795986622E+04  9.9549595945E+00  7.7193472232E+00  8.9603209230E-01  7.4292630345E-01  6.6586466994E-01
  1.4892976589E+04  1.0044816288E+01  7.7105043086E+00  9.1475189881E-01  7.5617818427E-01  6.6840562388E-01
  1.4989966555E+04  1.0135067507E+01  7.7018470666E+00  9.3373720709E-01  7.6954364753E-01  6.7093589015E-01
  1.5086956522E+04  1.0225642195E+01  7.6933239871E+00  9.5304193294E-01  7.8305594100E-01  6.7345536864E-01
  1.5183946488E+04  1.0316438129E+01  7.6848648664E+00  9.7262408438E-01  7.9668259046E-01  6.7596394618E-01
  1.5280936455E+04  1.0407739622E+01  7.6766481004E+00  9.9247981768E-01  8.1042222881E-01  6.7846150155E-01
  1.5377926421E+04  1.0499270211E+01  7.6684960138E+00  1.0126111772E+00  8.2427029874E-01  6.8094791891E-01
  1.5474916388E+04  1.0591107954E+01  7.6604541066E+00  1.0330202094E+00  8.3822671604E-01  6.8342308734E-01
  1.5571906355E+04  1.0683389172E+01  7.6526003361E+00  1.0537089629E+00  8.5229225757E-01  6.8588690081E-01
  1.5668896321E+04  1.0775893962E+01  7.6448033085E+00  1.0746794883E+00  8.6646288230E-01  6.8833925804E-01
  1.5765886288E+04  1.0868792877E+01  7.6371566383E+00  1.0959338386E+00  8.8073976609E-01  6.9078006250E-01
  1.5862876254E+04  1.0962066283E+01  7.6296466478E+00  1.1174740684E+00  8.9512156217E-01  6.9320922226E-01
  1.5959866221E+04  1.1055564257E+01  7.6221897533E+00  1.1393022348E+00  9.0960499866E-01  6.9562664995E-01
  1.6056856187E+04  1.1149535705E+01  7.6149137485E+00  1.1614203968E+00  9.2419241927E-01  6.9803225769E-01
  1.6153846154E+04  1.1243820758E+01  7.6077332931E+00  1.1838306152E+00  9.3888040918E-01  7.0042594719E-01
  1.6250836120E+04  1.1338331556E+01  7.6006025315E+00  1.2065349534E+00  9.5366643511E-01  7.0280762307E-01
  1.6347826087E+04  1.1433385096E+01  7.5936739369E+00  1.2295354761E+00  9.6855394847E-01  7.0517719482E-01
  1.6444816054E+04  1.1528701889E+01  7.5868096444E+00  1.2528342507E+00  9.8353761919E-01  7.0753457674E-01
  1.6541806020E+04  1.1624249222E+01  7.5799934368E+00  1.2764333462E+00  9.9861562673E-01  7.0987968788E-01
  1.6638795987E+04  1.1720389045E+01  7.5733886463E+00  1.3003348336E+00  1.0137922555E+00  7.1221245187E-01
  1.6735785953E+04  1.1816758285E+01  7.5668279495E+00  1.3245407860E+00  1.0290606835E+00  7.1453279696E-01
  1.6832775920E+04  1.1913382832E+01  7.5603222333E+00  1.3490532784E+00  1.0444199342E+00  7.1684065582E-01
  1.6929765886E+04  1.2010594711E+01  7.5540120389E+00  1.3738743879E+00  1.0598739892E+00  7.1913596109E-01
  1.7026755853E+04  1.2108037696E+01  7.5477431140E+00  1.3990061933E+00  1.0754158827E+00  7.2141863874E-01
  1.7123745819E+04  1.2205742616E+01  7.5415277072E+00  1.4244507756E+00  1.0910446923E+00  7.2368861797E-01
  1.7220735786E+04  1.2304048246E+01  7.5355007930E+00  1.4502102175E+00  1.1067646650E+00  7.2594583268E-01
  1.7317725753E+04  1.2402586844E+01  7.5295125043E+00  1.4762866038E+00  1.1225684072E+00  7.2819022137E-01
  1.7414715719E+04  1.2501372989E+01  7.5235682182E+00  1.5026820211E+00  1.1384547009E+00  7.3042172705E-01
  1.7511705686E+04  1.2600794376E+01  7.5178139405E+00  1.5294249595E+00  1.1544438266E+00  7.3264029717E-01
  1.7608695652E+04  1.2700450759E+01  7.5120958101E+00  1.5566871304E+00  1.1706231904E+00  7.3484588349E-01
  1.7705685619E+04  1.2800341396E+01  7.5064134028E+00  1.5842812141E+00  1.1868824762E+00  7.3703845647E-01
  1.7802675585E+04  1.2900873664E+01  7.5009129139E+00  1.6122093951E+00  1.2032274519E+00  7.3921803743E-01
  1.7899665552E+04  1.3001667995E+01  7.4954552667E+00  1.6404738602E+00  1.2196499977E+00  7.4138459028E-01
  1.7996655518E+04  1.3102698762E+01  7.4900310511E+00  1.6690767983E+00  1.2361481023E+00  7.4353807510E-01
  1.8093645485E+04  1.3204319399E+01  7.4847616090E+00  1.6980204007E+00  1.2527267812E+00  7.4567845613E-01
  1.8190635452E+04  1.3306270740E+01  7.4795554278E+00  1.7273068609E+00  1.2693798599E+00  7.4780570160E-01
  1.8287625418E+04  1.3408460827E+01  7.4743805240E+00  1.7569383745E+00  1.2861040692E+00  7.4991978372E-01
  1.8384615385E+04  1.3511160536E+01  7.4693259340E+00  1.7869171395E+00  1.3029030500E+00  7.5202067854E-01
  1.8481605351E+04  1.3614288252E+01  7.4643626939E+00  1.8172453558E+00  1.3197738389E+00  7.5410835722E-01
  1.8578595318E+04  1.3717657147E+01  7.4594287046E+00  1.8479252258E+00  1.3367112801E+00  7.5618275682E-01
  1.8675585284E+04  1.3821424377E+01  7.4545734354E+00  1.8789589540E+00  1.3537169083E+00  7.5824387683E-01
  1.8772575251E+04  1.3925748137E+01  7.4498450686E+00  1.9103522688E+00  1.3707942679E+00  7.6029173018E-01
  1.8869565217E+04  1.4030315634E+01  7.4451440446E+00  1.9421057807E+00  1.3879347192E+00  7.6232633239E-01
  1.8966555184E+04  1.4135136484E+01  7.4404731833E+00  1.9742199364E+00  1.4051359239E+00  7.6434770145E-01
  1.9063545151E+04  1.4240676252E+01  7.4359720479E+00  2.0066969513E+00  1.4224060236E+00  7.6635585775E-01
  1.9160535117E+04  1.4346462437E+01  7.4314964573E+00  2.0395390427E+00  1.4397337615E+00  7.6835082402E-01
  1.9257525084E+04  1.4452494361E+01  7.4270461383E+00  2.0727484302E+00  1.4571174958E+00  7.7033261227E-01
  1.9354515050E+04  1.4559096583E+01  7.4227145202E+00  2.1063273357E+00  1.4745626156E+00  7.7230119312E-01
  1.9451505017E+04  1.4666121819E+01  7.4184572210E+00  2.1402779828E+00  1.4920645394E+00  7.7425655162E-01
  1.9548494983E+04  1.4773395609E+01  7.4142235206E+00  2.1746025975E+00  1.5096179134E+00  7.7619867794E-01
  1.9645484950E+04  1.4881031120E+01  7.4100446748E+00  2.2093034079E+00  1.5272236289E+00  7.7812756596E-01
  1.9742474916E+04  1.4989316038E+01  7.4059988889E+00  2.2443826439E+00  1.5448866442E+00  7.8004321323E-01
  1.9839464883E+04  1.5097852445E+01  7.4019751230E+00  2.2798425379E+00  1.5625965747E+00  7.8194562081E-01
  1.9936454849E+04  1.5206639692E+01  7.3979731506E+00  2.3156853242E+00  1.5803517779E+00  7.8383479314E-01
  2.0033444816E+04  1.5316064604E+01  7.3940951936E+00  2.3519311664E+00  1.5981678945E+00  7.8571073477E-01
  2.0130434783E+04  1.5425883786E+01  7.3902749948E+00  2.3885993908E+00  1.6160455076E+00  7.8757344795E-01
  2.0227424749E+04  1.5535956868E+01  7.3864751174E+00  2.4256586538E+00  1.6339641180E+00  7.8942293787E-01
  2.0324414716E+04  1.5646382873E+01  7.3827209459E+00  2.4631112164E+00  1.6519244786E+00  7.9125921317E-01
  2.0421404682E+04  1.5757500453E+01  7.3790981641E+00  2.5009593413E+00  1.6699332752E+00  7.9308228580E-01
  2.0518394649E+04  1.5868875065E+01  7.3754943128E+00  2.5392052937E+00  1.6879785847E+00  7.9489217098E-01
  2.0615384615E+04  1.5980506082E+01  7.3719092044E+00  2.5778513405E+00  1.7060587809E+00  7.9668888698E-01
  2.0712374582E+04  1.6092706879E+01  7.3684206187E+00  2.6168997510E+00  1.7241801149E+00  7.9847243391E-01
  2.0809364548E+04  1.6205397087E+01  7.3650069852E+00  2.6563527965E+00  1.7423392093E+00  8.0024284006E-01
  2.0906354515E+04  1.6318346896E+01  7.3616107957E+00  2.6962127503E+00  1.7605287717E+00  8.0200016228E-01
  2.1003344482E+04  1.6431555693E+01  7.3582318808E+00  2.7364818878E+00  1.7787471979E+00  8.0374445886E-01
  2.1100334448E+04  1.6545523567E+01  7.3549903554E+00  2.7771624864E+00  1.7970059760E+00  8.0547578950E-01
  2.1197324415E+04  1.6659806262E+01  7.3517776229E+00  2.8182568258E+00  1.8152922103E+00  8.0719421518E-01
  2.1294314381E+04  1.6774351203E+01  7.3485809507E+00  2.8597671873E+00  1.8336029744E+00  8.0889979807E-01
  2.1391304348E+04  1.6889253346E+01  7.3454225666E+00  2.9016958547E+00  1.8519392641E+00  8.1059257990E-01
  2.1488294314E+04  1.7004882992E+01  7.3423880842E+00  2.9440451135E+00  1.8703096726E+00  8.1227257841E-01
  2.1585284281E+04  1.7120778195E+01  7.3393685126E+00  2.9868172514E+00  1.8887003528E+00  8.1393981763E-01
  2.1682274247E+04  1.7236938370E+01  7.3363637121E+00  3.0300145580E+00  1.9071097552E+00  8.1559432459E-01
  2.1779264214E+04  1.7353574050E+01  7.3334214293E+00  3.0736393250E+00  1.9255422388E+00  8.1723612918E-01
  2.1876254181E+04  1.7470833598E+01  7.3305740517E+00  3.1176938459E+00  1.9440006453E+00  8.1886526403E-01
  2.1973244147E+04  1.7588361489E+01  7.3277403685E+00  3.1621804164E+00  1.9624736295E+00  8.2048176449E-01
  2.2070234114E+04  1.7706157150E+01  7.3249202539E+00  3.2071013342E+00  1.9809596800E+00  8.2208566843E-01
  2.2167224080E+04  1.7824512438E+01  7.3221778407E+00  3.2524588987E+00  1.9994657663E+00  8.2367701625E-01
  2.2264214047E+04  1.7943422135E+01  7.3195106461E+00  3.2982554115E+00  2.0179904937E+00  8.2525585068E-01
  2.2361204013E+04  1.8062603039E+01  7.3168560106E+00  3.3444948553E+00  2.0365248936E+00  8.2682221679E-01
  2.2458193980E+04  1.8182054586E+01  7.3142138210E+00  3.3915031026E+00  2.0551863024E+00  8.2837616183E-01
  2.2555183946E+04  1.8302113336E+01  7.3116557644E+00  3.4389648623E+00  2.0738644102E+00  8.2991773517E-01
  2.2652173913E+04  1.8422693572E+01  7.3091622364E+00  3.4868825260E+00  2.0925554322E+00  8.3144698689E-01
  2.2749163880E+04  1.8543547950E+01  7.3066802071E+00  3.5352584877E+00  2.1112505730E+00  8.3296396029E-01
  2.2846153846E+04  1.8664675920E+01  7.3042095749E+00  3.5840951435E+00  2.1299483811E+00  8.3446869737E-01
  2.2943143813E+04  1.8786419710E+01  7.3018210288E+00  3.6333948918E+00  2.1486580304E+00  8.3596124251E-01
  2.3040133779E+04  1.8908691002E+01  7.2994950266E+00  3.6831601331E+00  2.1673756193E+00  8.3744164244E-01
  2.3137123746E+04  1.9031239447E+01  7.2971795318E+00  3.7333932701E+00  2.1860920648E+00  8.3890994606E-01
  2.3234113712E+04  1.9154064506E+01  7.2948744530E+00  3.7840967078E+00  2.2048059671E+00  8.4036620440E-01
  2.3331103679E+04  1.9277472574E+01  7.2926411915E+00  3.8352728532E+00  2.2235257388E+00  8.4181047053E-01
  2.3428093645E+04  1.9401455562E+01  7.2904769223E+00  3.8869241155E+00  2.2422499956E+00  8.4324279946E-01
  2.3525083612E+04  1.9525718786E+01  7.2883222328E+00  3.9390529062E+00  2.2609680615E+00  8.4466324803E-01
  2.3622073579E+04  1.9650261720E+01  7.2861770414E+00  3.9916616387E+00  2.2796785911E+00  8.4607187486E-01
  2.3719063545E+04  1.9775310900E+01  7.2840854151E+00  4.0447527289E+00  2.2983877158E+00  8.4746874024E-01
  2.3816053512E+04  1.9901026335E+01  7.2820774088E+00  4.0983285945E+00  2.3170996010E+00  8.4885390606E-01
  2.3913043478E+04  2.0027025162E+01  7.2800781137E+00  4.1523916554E+00  2.3358004730E+00  8.5022743210E-01
  2.4010033445E+04  2.0153306867E+01  7.2780874567E+00  4.2069443337E+00  2.3544890440E+00  8.5158937234E-01
  2.4107023411E+04  2.0279971525E+01  7.2761243539E+00  4.2619890536E+00  2.3731674379E+00  8.5293978171E-01
  2.4204013378E+04  2.0407440262E+01  7.2742674404E+00  4.3175282414E+00  2.3918488094E+00  8.5427871704E-01
  2.4301003344E+04  2.0535195620E+01  7.2724184241E+00  4.3735643255E+00  2.4105145795E+00  8.5560623691E-01
  2.4397993311E+04  2.0663237095E+01  7.2705772400E+00  4.4300997363E+00  2.4291635199E+00  8.5692240158E-01
  2.4494983278E+04  2.0791564188E+01  7.2687438242E+00  4.4871369065E+00  2.4477944170E+00  8.5822727291E-01
  2.4591973244E+04  2.0920732050E+01  7.2670193379E+00  4.5446782706E+00  2.4664254560E+00  8.5952091428E-01
  2.4688963211E+04  2.1050264959E+01  7.2653157599E+00  4.6027262654E+00  2.4850391493E+00  8.6080339050E-01
  2.4785953177E+04  2.1180087297E+01  7.2636192582E+00  4.6612833297E+00  2.5036317263E+00  8.6207476773E-01
  2.4882943144E+04  2.1310198575E+01  7.2619297760E+00  4.7203519043E+00  2.5222020347E+00  8.6333511340E-01
  2.4979933110E+04  2.1440933458E+01  7.2603066774E+00  4.7799344321E+00  2.5407609212E+00  8.6458449708E-01
  2.5076923077E+04  2.1572263840E+01  7.2587439186E+00  4.8401458571E+00  2.5593379492E+00  8.6582301779E-01
  2.5173913043E+04  2.1703887024E+01  7.2571875268E+00  4.9009082340E+00  2.5778980472E+00  8.6705075668E-01
  2.5270903010E+04  2.1835802531E+01  7.2556374517E+00  4.9621950121E+00  2.5964319143E+00  8.6826778073E-01
  2.5367892977E+04  2.1968069916E+01  7.2541041121E+00  5.0240086739E+00  2.6149406787E+00  8.6947415805E-01
  2.5464882943E+04  2.2101209799E+01  7.2526775675E+00  5.0863517044E+00  2.6334426169E+00  8.7066995781E-01
  2.5561872910E+04  2.2234645853E+01  7.2512567249E+00  5.1492265905E+00  2.6519155959E+00  8.7185525015E-01
  2.5658862876E+04  2.2368377608E+01  7.2498415400E+00  5.2126358211E+00  2.6703585803E+00  8.7303010614E-01
  2.5755852843E+04  2.2502404598E+01  7.2484319690E+00  5.2765818876E+00  2.6887705508E+00  8.7419459769E-01
  2.5852842809E+04  2.2637100317E+01  7.2470920125E+00  5.3410672831E+00  2.7071647887E+00  8.7534879751E-01
  2.5949832776E+04  2.2772357650E+01  7.2458023001E+00  5.4060945030E+00  2.7255364448E+00  8.7649277903E-01
  2.6046822742E+04  2.2907914032E+01  7.2445176274E+00  5.4716660450E+00  2.7438745901E+00  8.7762661636E-01
  2.6143812709E+04  2.3043769007E+01  7.2432379560E+00  5.5377844084E+00  2.7621782682E+00  8.7875037894E-01
  2.6240802676E+04  2.3179923458E+01  7.2419634746E+00  5.6044520951E+00  2.7804465912E+00  8.7986412315E-01
  2.6337792642E+04  2.3317009989E+01  7.2408006940E+00  5.6716716086E+00  2.7987036743E+00  8.8096791263E-01
  2.6434782609E+04  2.3454398882E+01  7.2396423732E+00  5.7394454550E+00  2.8169239762E+00  8.8206181253E-01
  2.6531772575E+04  2.3592089691E+01  7.2384884789E+00  5.8077761419E+00  2.8351066032E+00  8.8314588904E-01
  2.6628762542E+04  2.3730081971E+01  7.2373389780E+00  5.8766661794E+00  2.8532506773E+00  8.8422020928E-01
  2.6725752508E+04  2.3868588901E+01  7.2362294100E+00  5.9461180796E+00  2.8713640290E+00  8.8528484129E-01
  2.6822742475E+04  2.4007817704E+01  7.2351934848E+00  6.0161343563E+00  2.8894544273E+00  8.8633985392E-01
  2.6919732441E+04  2.4147351712E+01  7.2341614463E+00  6.0867175257E+00  2.9075041857E+00  8.8738531679E-01
  2.7016722408E+04  2.4287190492E+01  7.2331332658E+00  6.1578701060E+00  2.9255124881E+00  8.8842130020E-01
  2.7113712375E+04  2.4427333610E+01  7.2321089152E+00  6.2295946172E+00  2.9434785338E+00  8.8944787514E-01
  2.7210702341E+04  2.4568154634E+01  7.2311496523E+00  6.3018935816E+00  2.9614172505E+00  8.9046511243E-01
  2.7307692308E+04  2.4709538724E+01  7.2302357366E+00  6.3747695234E+00  2.9793232496E+00  8.9147307864E-01
  2.7404682274E+04  2.4851230849E+01  7.2293251760E+00  6.4482288286E+00  2.9971859607E+00  8.9247183908E-01
  2.7501672241E+04  2.4993230586E+01  7.2284179465E+00  6.5222866971E+00  3.0150073239E+00  8.9346145986E-01
  2.7598662207E+04  2.5135537514E+01  7.2275140241E+00  6.5969295426E+00  3.0327830922E+00  8.9444200785E-01
  2.7695652174E+04  2.5278633075E+01  7.2266911394E+00  6.6721599011E+00  3.0505334267E+00  8.9541355062E-01
  2.7792642140E+04  2.5422184912E+01  7.2258946726E+00  6.7479803111E+00  3.0682434518E+00  8.9637615638E-01
  2.7889632107E+04  2.5566047596E+01  7.2251010678E+00  6.8243933128E+00  3.0859062300E+00  8.9732989392E-01
  2.7986622074E+04  2.5710220717E+01  7.2243103048E+00  6.9014014484E+00  3.1035210940E+00  8.9827483257E-01
  2.8083612040E+04  2.5854703865E+01  7.2235223636E+00  6.9790072622E+00  3.1210873914E+00  8.9921104211E-01
  2.8180602007E+04  2.6000033359E+01  7.2228225648E+00  7.0572133004E+00  3.1386284204E+00  9.0013859275E-01
  2.8277591973E+04  2.6145764842E+01  7.2221392500E+00  7.1360221113E+00  3.1561239559E+00  9.0105755294E-01
  2.8374581940E+04  2.6291809969E+01  7.2214583392E+00  7.2154362450E+00  3.1735694806E+00  9.0196798755E-01
  2.8471571906E+04  2.6438168339E+01  7.2207798157E+00  7.2954582538E+00  3.1909643984E+00  9.0286996161E-01
  2.8568561873E+04  2.6584839554E+01  7.2201036632E+00  7.3760906916E+00  3.2083081273E+00  9.0376354075E-01
  2.8665551839E+04  2.6732361453E+01  7.2195142497E+00  7.4573361147E+00  3.2256247814E+00  9.0464879110E-01
  2.8762541806E+04  2.6880283924E+01  7.2189400338E+00  7.5391970810E+00  3.2428933704E+00  9.0552577929E-01
  2.8859531773E+04  2.7028522814E+01  7.2183677964E+00  7.6216761505E+00  3.2601095254E+00  9.0639457233E-01
  2.8956521739E+04  2.7177077734E+01  7.2177975241E+00  7.7047758851E+00  3.2772727184E+00  9.0725523766E-01
  2.9053511706E+04  2.7325948296E+01  7.2172292035E+00  7.7884988486E+00  3.2943824353E+00  9.0810784299E-01
  2.9150501672E+04  2.7475620284E+01  7.2167380266E+00  7.8728476069E+00  3.3114610722E+00  9.0895245636E-01
  2.9247491639E+04  2.7625744520E+01  7.2162690827E+00  7.9578247276E+00  3.3284918818E+00  9.0978914485E-01
  2.9344481605E+04  2.7776187930E+01  7.2158017216E+00  8.0434327803E+00  3.3454681593E+00  9.1061797200E-01
  2.9441471572E+04  2.7926950136E+01  7.2153359329E+00  8.1296743366E+00  3.3623894420E+00  9.1143900100E-01
  2.9538461538E+04  2.8078030760E+01  7.2148717060E+00  8.2165519700E+00  3.3792552803E+00  9.1225229546E-01
  2.9635451505E+04  2.8229809860E+01  7.2144671328E+00  8.3040682558E+00  3.3960836179E+00  9.1305791936E-01
  2.9732441472E+04  2.8382146073E+01  7.2140998435E+00  8.3922257712E+00  3.4128673599E+00  9.1385593701E-01
  2.9829431438E+04  2.8534804194E+01  7.2137337689E+00  8.4810270953E+00  3.4295947806E+00  9.1464641301E-01
  2.9926421405E+04  2.8687783853E+01  7.2133689012E+00  8.5704748093E+00  3.4462654789E+00  9.1542941218E-01
  3.0023411371E+04  2.8841084681E+01  7.2130052324E+00  8.6607068887E+00  3.4629007119E+00  9.1620499955E-01
  3.0120401338E+04  2.8994927075E+01  7.2126760816E+00  8.7520222210E+00  3.4795571426E+00  9.1697324049E-01
  3.0217391304E+04  2.9149484021E+01  7.2124069373E+00  8.8440017087E+00  3.4961748982E+00  9.1773420579E-01
  3.0314381271E+04  2.9304365576E+01  7.2121386654E+00  8.9366480227E+00  3.5127343704E+00  9.1848795777E-01
  3.0411371237E+04  2.9459571380E+01  7.2118712604E+00  9.0299638360E+00  3.5292352078E+00  9.1923455441E-01
  3.0508361204E+04  2.9615101073E+01  7.2116047168E+00  9.1239518237E+00  3.5456770707E+00  9.1997405409E-01
  3.0605351171E+04  2.9770962552E+01  7.2113402627E+00  9.2186146629E+00  3.5620600504E+00  9.2070651560E-01
  3.0702341137E+04  2.9927746161E+01  7.2111657294E+00  9.3139550330E+00  3.5784139134E+00  9.2143199808E-01
  3.0799331104E+04  3.0084857030E+01  7.2109917509E+00  9.4099756152E+00  3.5947082288E+00  9.2215056092E-01
  3.0896321070E+04  3.0242294811E+01  7.2108183235E+00  9.5066790930E+00  3.6109427011E+00  9.2286226382E-01
  3.0993311037E+04  3.0400059153E+01  7.2106454438E+00  9.6040681518E+00  3.6271170458E+00  9.2356716666E-01
  3.1090301003E+04  3.0558149708E+01  7.2104731084E+00  9.7021454792E+00  3.6432309898E+00  9.2426532951E-01
  3.1187290970E+04  3.0716910476E+01  7.2103520955E+00  9.8009137648E+00  3.6593022368E+00  9.2495681257E-01
