#[MATERIAL DEFINITION FOR MC-GPU: interaction mean free path and sampling data from PENELOPE 2006]
#[MATERIAL NAME]
# Lung_2                                                        
#[NOMINAL DENSITY (g/cm^3)]
#   0.35269500
#[NUMBER OF DATA VALUES]
#   1495
#[MEAN FREE PATHS (cm) (ie, average distance between interactions)]
#[Energy (eV)     | Rayleigh        | Compton         | Photoelectric   | TOTAL (+pair prod) (cm) | Rayleigh: max cumul prob F^2]
  5.0000000000E+03  5.2684948048E+00  2.3952651862E+01  6.7085974318E-02  6.6059788505E-02  3.4460286597E-01
  5.0969899666E+03  5.3854964929E+00  2.3676026734E+01  7.1073745004E-02  6.9940762080E-02  3.4955801519E-01
  5.1939799331E+03  5.5038167359E+00  2.3413500113E+01  7.5216365973E-02  7.3967881305E-02  3.5440638475E-01
  5.2909698997E+03  5.6234286615E+00  2.3164106133E+01  7.9516772932E-02  7.8143554425E-02  3.5915274853E-01
  5.3879598662E+03  5.7443049782E+00  2.2926957702E+01  8.3977900676E-02  8.2470166479E-02  3.6380160768E-01
  5.4849498328E+03  5.8664180577E+00  2.2701238869E+01  8.8605554355E-02  8.6952843833E-02  3.6835756168E-01
  5.5819397993E+03  5.9897400179E+00  2.2486198066E+01  9.3434755561E-02  9.1624768869E-02  3.7282508075E-01
  5.6789297659E+03  6.1142428088E+00  2.2281142107E+01  9.8436820220E-02  9.6457744954E-02  3.7720833371E-01
  5.7759197324E+03  6.2398982985E+00  2.2085430841E+01  1.0361590976E-01  1.0145521997E-01  3.8151140258E-01
  5.8729096990E+03  6.3666783615E+00  2.1898472395E+01  1.0897552646E-01  1.0661997748E-01  3.8573831165E-01
  5.9698996656E+03  6.4945549803E+00  2.1719718900E+01  1.1451743786E-01  1.1195311280E-01  3.8989282278E-01
  6.0668896321E+03  6.6235010212E+00  2.1548662062E+01  1.2026421108E-01  1.1747554728E-01  3.9397849517E-01
  6.1638795987E+03  6.7534915386E+00  2.1384828754E+01  1.2621017119E-01  1.2318114775E-01  3.9799890948E-01
  6.2608695652E+03  6.8845037300E+00  2.1227778279E+01  1.3235005665E-01  1.2906419830E-01  4.0195747119E-01
  6.3578595318E+03  7.0165152540E+00  2.1077101262E+01  1.3868702596E-01  1.3512699921E-01  4.0585737300E-01
  6.4548494983E+03  7.1495392523E+00  2.0932608878E+01  1.4522423880E-01  1.4137184265E-01  4.0970161596E-01
  6.5518394649E+03  7.2835595915E+00  2.0793977859E+01  1.5196513146E-01  1.4780123638E-01  4.1349303564E-01
  6.6488294314E+03  7.4185173901E+00  2.0660675405E+01  1.5891271633E-01  1.5441722284E-01  4.1723442986E-01
  6.7458193980E+03  7.5543908508E+00  2.0532391142E+01  1.6607006108E-01  1.6122188544E-01  4.2092846339E-01
  6.8428093645E+03  7.6911587943E+00  2.0408835942E+01  1.7344033088E-01  1.6821736551E-01  4.2457764084E-01
  6.9397993311E+03  7.8288007435E+00  2.0289740348E+01  1.8102669200E-01  1.7540577016E-01  4.2818433642E-01
  7.0367892977E+03  7.9673003193E+00  2.0174871430E+01  1.8886275724E-01  1.8281770277E-01  4.3175080644E-01
  7.1337792642E+03  8.1067355095E+00  2.0064523381E+01  1.9697503689E-01  1.9047695712E-01  4.3527921048E-01
  7.2307692308E+03  8.2469909188E+00  1.9957927367E+01  2.0531881023E-01  1.9834044161E-01  4.3877156993E-01
  7.3277591973E+03  8.3880514569E+00  1.9854876317E+01  2.1389743112E-01  2.0641025112E-01  4.4222978268E-01
  7.4247491639E+03  8.5299026895E+00  1.9755177102E+01  2.2271425592E-01  2.1468844201E-01  4.4565566559E-01
  7.5217391304E+03  8.6725822834E+00  1.9658926012E+01  2.3177264344E-01  2.2317710108E-01  4.4905096215E-01
  7.6187290970E+03  8.8160885870E+00  1.9566021542E+01  2.4107595495E-01  2.3187823688E-01  4.5241733342E-01
  7.7157190635E+03  8.9603417333E+00  1.9475948714E+01  2.5062755410E-01  2.4079370172E-01  4.5575628336E-01
  7.8127090301E+03  9.1053291884E+00  1.9388559556E+01  2.6043080692E-01  2.4992539070E-01  4.5906922910E-01
  7.9096989967E+03  9.2511104482E+00  1.9304101403E+01  2.7048908174E-01  2.5927528227E-01  4.6235754081E-01
  8.0066889632E+03  9.3976476792E+00  1.9222314068E+01  2.8080938428E-01  2.6884849559E-01  4.6562254557E-01
  8.1036789298E+03  9.5448798374E+00  1.9142802306E+01  2.9144231050E-01  2.7868987115E-01  4.6886547678E-01
  8.2006688963E+03  9.6928182356E+00  1.9065564990E+01  3.0234378138E-01  2.8875754699E-01  4.7208742869E-01
  8.2976588629E+03  9.8415381655E+00  1.8990937514E+01  3.1351726891E-01  2.9905345454E-01  4.7528945535E-01
  8.3946488294E+03  9.9909236307E+00  1.8918248148E+01  3.2496624801E-01  3.0957907128E-01  4.7847258534E-01
  8.4916387960E+03  1.0140971043E+01  1.8847427100E+01  3.3669450100E-01  3.2033632721E-01  4.8163780781E-01
  8.5886287625E+03  1.0291794767E+01  1.8779015257E+01  3.4870970688E-01  3.3133092962E-01  4.8478598200E-01
  8.6856187291E+03  1.0443257074E+01  1.8712257397E+01  3.6101115697E-01  3.4256031332E-01  4.8791790626E-01
  8.7826086957E+03  1.0595366292E+01  1.8647154846E+01  3.7360234691E-01  3.5402602728E-01  4.9103436478E-01
  8.8795986622E+03  1.0748217703E+01  1.8584152033E+01  3.8648677517E-01  3.6572985124E-01  4.9413612336E-01
  8.9765886288E+03  1.0901682639E+01  1.8522563644E+01  3.9966794303E-01  3.7767285029E-01  4.9722385156E-01
  9.0735785953E+03  1.1055803554E+01  1.8462568497E+01  4.1321202152E-01  3.8991234442E-01  5.0029814686E-01
  9.1705685619E+03  1.1210611719E+01  1.8404285226E+01  4.2708384157E-01  4.0241497298E-01  5.0335959857E-01
  9.2675585284E+03  1.1366012469E+01  1.8347215672E+01  4.4126763430E-01  4.1516443382E-01  5.0640878596E-01
  9.3645484950E+03  1.1522102933E+01  1.8291794650E+01  4.5576702684E-01  4.2816238597E-01  5.0944621164E-01
  9.4615384615E+03  1.1678810972E+01  1.8237644746E+01  4.7058564973E-01  4.4140980654E-01  5.1247231516E-01
  9.5585284281E+03  1.1836123852E+01  1.8184680964E+01  4.8573185715E-01  4.5491196653E-01  5.1548753218E-01
  9.6555183946E+03  1.1994118135E+01  1.8133225233E+01  5.0120656094E-01  4.6866791829E-01  5.1849229020E-01
  9.7525083612E+03  1.2152673655E+01  1.8082706504E+01  5.1701179587E-01  4.8267679693E-01  5.2148694618E-01
  9.8494983278E+03  1.2311901467E+01  1.8033597121E+01  5.3315121664E-01  4.9694015335E-01  5.2447181511E-01
  9.9464882943E+03  1.2471709766E+01  1.7985467303E+01  5.4962848132E-01  5.1145853199E-01  5.2744721201E-01
  1.0043478261E+04  1.2632128697E+01  1.7938428613E+01  5.6648002482E-01  5.2626128660E-01  5.3041346399E-01
  1.0140468227E+04  1.2793173591E+01  1.7892510923E+01  5.8371979097E-01  5.4135791893E-01  5.3337081723E-01
  1.0237458194E+04  1.2954778224E+01  1.7847423668E+01  6.0131221666E-01  5.5671486284E-01  5.3631944720E-01
  1.0334448161E+04  1.3117054989E+01  1.7803566063E+01  6.1926106045E-01  5.7233351698E-01  5.3925953185E-01
  1.0431438127E+04  1.3279858209E+01  1.7760364118E+01  6.3757008472E-01  5.8821377906E-01  5.4219125183E-01
  1.0528428094E+04  1.3443355591E+01  1.7718391851E+01  6.5624305560E-01  6.0435728214E-01  5.4511479042E-01
  1.0625418060E+04  1.3607383306E+01  1.7677047530E+01  6.7528374293E-01  6.2076366211E-01  5.4803033343E-01
  1.0722408027E+04  1.3772077693E+01  1.7636764700E+01  6.9469592027E-01  6.3743428909E-01  5.5093804685E-01
  1.0819397993E+04  1.3937328475E+01  1.7597156528E+01  7.1448336482E-01  6.5436896374E-01  5.5383799879E-01
  1.0916387960E+04  1.4103223634E+01  1.7558476386E+01  7.3464985742E-01  6.7156867325E-01  5.5673023933E-01
  1.1013377926E+04  1.4269695571E+01  1.7520491466E+01  7.5519918251E-01  6.8903334118E-01  5.5961482282E-01
  1.1110367893E+04  1.4436795714E+01  1.7483332811E+01  7.7613512806E-01  7.0676362198E-01  5.6249180739E-01
  1.1207357860E+04  1.4604486355E+01  1.7446866159E+01  7.9750283596E-01  7.2479365342E-01  5.6536125479E-01
  1.1304347826E+04  1.4772796115E+01  1.7411152881E+01  8.1937596200E-01  7.4318089520E-01  5.6822322993E-01
  1.1401337793E+04  1.4941702410E+01  1.7376106823E+01  8.4165398580E-01  7.6183871757E-01  5.7107776365E-01
  1.1498327759E+04  1.5111226818E+01  1.7341767494E+01  8.6434084997E-01  7.8076738782E-01  5.7392482955E-01
  1.1595317726E+04  1.5281345070E+01  1.7308051118E+01  8.8744050133E-01  7.9996675146E-01  5.7676440171E-01
  1.1692307692E+04  1.5452089530E+01  1.7275018628E+01  9.1095689096E-01  8.1943703929E-01  5.7959645847E-01
  1.1789297659E+04  1.5623415338E+01  1.7242547291E+01  9.3489397414E-01  8.3917780620E-01  5.8242098221E-01
  1.1886287625E+04  1.5795385610E+01  1.7210758506E+01  9.5925571027E-01  8.5918940718E-01  5.8523795927E-01
  1.1983277592E+04  1.5967913820E+01  1.7179453381E+01  9.8404606292E-01  8.7947092789E-01  5.8804736755E-01
  1.2080267559E+04  1.6141115996E+01  1.7148848847E+01  1.0092689997E+00  9.0002304397E-01  5.9084913830E-01
  1.2177257525E+04  1.6314840649E+01  1.7118636515E+01  1.0349284924E+00  9.2084415624E-01  5.9364319627E-01
  1.2274247492E+04  1.6489281136E+01  1.7089160178E+01  1.0610285167E+00  9.4193549648E-01  5.9642947067E-01
  1.2371237458E+04  1.6664195425E+01  1.7059972253E+01  1.0875730524E+00  9.6329452477E-01  5.9920789505E-01
  1.2468227425E+04  1.6839881077E+01  1.7031571300E+01  1.1145660832E+00  9.8492330774E-01  6.0197840704E-01
  1.2565217391E+04  1.7016036035E+01  1.7003437156E+01  1.1420439177E+00  1.0068437170E+00  6.0474097864E-01
  1.2662207358E+04  1.7192920557E+01  1.6975971710E+01  1.1699956746E+00  1.0290455525E+00  6.0749557510E-01
  1.2759197324E+04  1.7370333658E+01  1.6948852400E+01  1.1984099724E+00  1.0515142653E+00  6.1024209856E-01
  1.2856187291E+04  1.7548413442E+01  1.6922263272E+01  1.2272908504E+00  1.0742503107E+00  6.1298045485E-01
  1.2953177258E+04  1.7727107656E+01  1.6896120878E+01  1.2566423522E+00  1.0972524116E+00  6.1571055406E-01
  1.3050167224E+04  1.7906380463E+01  1.6870357909E+01  1.2864685256E+00  1.1205192932E+00  6.1843231070E-01
  1.3147157191E+04  1.8086380063E+01  1.6845156832E+01  1.3167734220E+00  1.1440514491E+00  6.2114564244E-01
  1.3244147157E+04  1.8266846086E+01  1.6820178219E+01  1.3475610973E+00  1.1678453347E+00  6.2385042442E-01
  1.3341137124E+04  1.8448171126E+01  1.6795878921E+01  1.3788356110E+00  1.1919037115E+00  6.2654652178E-01
  1.3438127090E+04  1.8629968015E+01  1.6771796080E+01  1.4106010268E+00  1.2162216649E+00  6.2923380454E-01
  1.3535117057E+04  1.8812499019E+01  1.6748209879E+01  1.4428614121E+00  1.2408005822E+00  6.3191214747E-01
  1.3632107023E+04  1.8995652696E+01  1.6724991419E+01  1.4756208384E+00  1.2656381490E+00  6.3458143006E-01
  1.3729096990E+04  1.9179379674E+01  1.6702076245E+01  1.5089662875E+00  1.2907931715E+00  6.3724153635E-01
  1.3826086957E+04  1.9363916655E+01  1.6679692335E+01  1.5429651850E+00  1.3163119241E+00  6.3989235490E-01
  1.3923076923E+04  1.9548920557E+01  1.6657494587E+01  1.5774839014E+00  1.3420879555E+00  6.4253377864E-01
  1.4020066890E+04  1.9734773972E+01  1.6635830403E+01  1.6125266686E+00  1.3681238564E+00  6.4516570484E-01
  1.4117056856E+04  1.9921189814E+01  1.6614429096E+01  1.6480977229E+00  1.3944150558E+00  6.4778803316E-01
  1.4214046823E+04  2.0108236121E+01  1.6593340451E+01  1.6842013053E+00  1.4209606459E+00  6.5040063660E-01
  1.4311036789E+04  2.0296091818E+01  1.6572709108E+01  1.7208416611E+00  1.4477610389E+00  6.5300337652E-01
  1.4408026756E+04  2.0484415865E+01  1.6552242512E+01  1.7580230401E+00  1.4748106777E+00  6.5559612081E-01
  1.4505016722E+04  2.0673635754E+01  1.6532273762E+01  1.7957496965E+00  1.5021126867E+00  6.5817874227E-01
  1.4602006689E+04  2.0863430286E+01  1.6512543341E+01  1.8340258889E+00  1.5296616233E+00  6.6075111854E-01
  1.4698996656E+04  2.1053827847E+01  1.6493064999E+01  1.8728558803E+00  1.5574558876E+00  6.6331313206E-01
  1.4795986622E+04  2.1245122023E+01  1.6474047146E+01  1.9122439380E+00  1.5854971405E+00  6.6586466994E-01
  1.4892976589E+04  2.1436887384E+01  1.6455175266E+01  1.9521943336E+00  1.6137783025E+00  6.6840562388E-01
  1.4989966555E+04  2.1629494712E+01  1.6436699635E+01  1.9927113429E+00  1.6423018636E+00  6.7093589015E-01
  1.5086956522E+04  2.1822792361E+01  1.6418510323E+01  2.0339100291E+00  1.6711387786E+00  6.7345536864E-01
  1.5183946488E+04  2.2016562178E+01  1.6400457507E+01  2.0757007760E+00  1.7002197435E+00  6.7596394618E-01
  1.5280936455E+04  2.2211410921E+01  1.6382921907E+01  2.1180753806E+00  1.7295418407E+00  6.7846150155E-01
  1.5377926421E+04  2.2406748583E+01  1.6365524340E+01  2.1610382058E+00  1.7590953445E+00  6.8094791891E-01
  1.5474916388E+04  2.2602741750E+01  1.6348361910E+01  2.2045936191E+00  1.7888800749E+00  6.8342308734E-01
  1.5571906355E+04  2.2799681348E+01  1.6331600987E+01  2.2487459924E+00  1.8188976901E+00  6.8588690081E-01
  1.5668896321E+04  2.2997098075E+01  1.6314961160E+01  2.2934997022E+00  1.8491395659E+00  6.8833925804E-01
  1.5765886288E+04  2.3195355915E+01  1.6298642215E+01  2.3388591293E+00  1.8796082117E+00  6.9078006250E-01
  1.5862876254E+04  2.3394412966E+01  1.6282614961E+01  2.3848286591E+00  1.9103007535E+00  6.9320922226E-01
  1.5959866221E+04  2.3593949272E+01  1.6266701020E+01  2.4314126813E+00  1.9412102084E+00  6.9562664995E-01
  1.6056856187E+04  2.3794496030E+01  1.6251173121E+01  2.4786155901E+00  1.9723415785E+00  6.9803225769E-01
  1.6153846154E+04  2.3995712061E+01  1.6235849136E+01  2.5264417838E+00  2.0036875759E+00  7.0042594719E-01
  1.6250836120E+04  2.4197409860E+01  1.6220631204E+01  2.5748956654E+00  2.0352427944E+00  7.0280762307E-01
  1.6347826087E+04  2.4400265937E+01  1.6205844721E+01  2.6239816420E+00  2.0670145997E+00  7.0517719482E-01
  1.6444816054E+04  2.4603683830E+01  1.6191195467E+01  2.6737041249E+00  2.0989916168E+00  7.0753457674E-01
  1.6541806020E+04  2.4807593722E+01  1.6176648832E+01  2.7240675300E+00  2.1311699603E+00  7.0987968788E-01
  1.6638795987E+04  2.5012768063E+01  1.6162553388E+01  2.7750762771E+00  2.1635587739E+00  7.1221245187E-01
  1.6735785953E+04  2.5218432009E+01  1.6148552045E+01  2.8267347904E+00  2.1961434983E+00  7.1453279696E-01
  1.6832775920E+04  2.5424640811E+01  1.6134668037E+01  2.8790474982E+00  2.2289220498E+00  7.1684065582E-01
  1.6929765886E+04  2.5632103051E+01  1.6121201298E+01  2.9320188332E+00  2.2619029254E+00  7.1913596109E-01
  1.7026755853E+04  2.5840058502E+01  1.6107822632E+01  2.9856532320E+00  2.2950712594E+00  7.2141863874E-01
  1.7123745819E+04  2.6048572955E+01  1.6094558181E+01  3.0399551355E+00  2.3284250831E+00  7.2368861797E-01
  1.7220735786E+04  2.6258369398E+01  1.6081695996E+01  3.0949289887E+00  2.3619734601E+00  7.2594583268E-01
  1.7317725753E+04  2.6468663022E+01  1.6068916243E+01  3.1505792406E+00  2.3957006118E+00  7.2819022137E-01
  1.7414715719E+04  2.6679484942E+01  1.6056230397E+01  3.2069103443E+00  2.4296039384E+00  7.3042172705E-01
  1.7511705686E+04  2.6891662549E+01  1.6043950053E+01  3.2639831013E+00  2.4637267215E+00  7.3264029717E-01
  1.7608695652E+04  2.7104341667E+01  1.6031746852E+01  3.3221639649E+00  2.4982554965E+00  7.3484588349E-01
  1.7705685619E+04  2.7317520711E+01  1.6019619887E+01  3.3810531718E+00  2.5329548347E+00  7.3703845647E-01
  1.7802675585E+04  2.7532069075E+01  1.6007881160E+01  3.4406553839E+00  2.5678370459E+00  7.3921803743E-01
  1.7899665552E+04  2.7747176714E+01  1.5996233862E+01  3.5009752681E+00  2.6028848013E+00  7.4138459028E-01
  1.7996655518E+04  2.7962788939E+01  1.5984657911E+01  3.5620174959E+00  2.6380938087E+00  7.4353807510E-01
  1.8093645485E+04  2.8179660018E+01  1.5973412266E+01  3.6237867436E+00  2.6734747715E+00  7.4567845613E-01
  1.8190635452E+04  2.8397236861E+01  1.5962301628E+01  3.6862876925E+00  2.7090145129E+00  7.4780570160E-01
  1.8287625418E+04  2.8615323217E+01  1.5951257740E+01  3.7495250282E+00  2.7447060558E+00  7.4991978372E-01
  1.8384615385E+04  2.8834497171E+01  1.5940470616E+01  3.8135034415E+00  2.7805571704E+00  7.5202067854E-01
  1.8481605351E+04  2.9054584544E+01  1.5929878444E+01  3.8782276275E+00  2.8165615325E+00  7.5410835722E-01
  1.8578595318E+04  2.9275186624E+01  1.5919348697E+01  3.9437022863E+00  2.8527081387E+00  7.5618275682E-01
  1.8675585284E+04  2.9496638799E+01  1.5908986949E+01  4.0099321222E+00  2.8890002644E+00  7.5824387683E-01
  1.8772575251E+04  2.9719278680E+01  1.5898896026E+01  4.0769293610E+00  2.9254454741E+00  7.6029173018E-01
  1.8869565217E+04  2.9942438725E+01  1.5888863456E+01  4.1446953051E+00  2.9620253293E+00  7.6232633239E-01
  1.8966555184E+04  3.0166139457E+01  1.5878895257E+01  4.2132309079E+00  2.9987348397E+00  7.6434770145E-01
  1.9063545151E+04  3.0391374451E+01  1.5869289274E+01  4.2825408972E+00  3.0355913804E+00  7.6635585775E-01
  1.9160535117E+04  3.0617135327E+01  1.5859737807E+01  4.3526300053E+00  3.0725709284E+00  7.6835082402E-01
  1.9257525084E+04  3.0843420642E+01  1.5850240273E+01  4.4235029692E+00  3.1096699797E+00  7.7033261227E-01
  1.9354515050E+04  3.1070923042E+01  1.5840996061E+01  4.4951645301E+00  3.1469000353E+00  7.7230119312E-01
  1.9451505017E+04  3.1299328209E+01  1.5831910455E+01  4.5676194340E+00  3.1842513176E+00  7.7425655162E-01
  1.9548494983E+04  3.1528263820E+01  1.5822875212E+01  4.6408724312E+00  3.2217124012E+00  7.7619867794E-01
  1.9645484950E+04  3.1757971389E+01  1.5813957035E+01  4.7149282768E+00  3.2592851879E+00  7.7812756596E-01
  1.9742474916E+04  3.1989064872E+01  1.5805322825E+01  4.7897917299E+00  3.2969802596E+00  7.8004321323E-01
  1.9839464883E+04  3.2220695065E+01  1.5796735608E+01  4.8654675544E+00  3.3347754542E+00  7.8194562081E-01
  1.9936454849E+04  3.2452860582E+01  1.5788194901E+01  4.9419605185E+00  3.3726672663E+00  7.8383479314E-01
  2.0033444816E+04  3.2686386956E+01  1.5779918858E+01  5.0193136543E+00  3.4106890750E+00  7.8571073477E-01
  2.0130434783E+04  3.2920754749E+01  1.5771766079E+01  5.0975682061E+00  3.4488421251E+00  7.8757344795E-01
  2.0227424749E+04  3.3155664398E+01  1.5763656668E+01  5.1766572830E+00  3.4870826686E+00  7.8942293787E-01
  2.0324414716E+04  3.3391327227E+01  1.5755644799E+01  5.2565857101E+00  3.5254123121E+00  7.9125921317E-01
  2.0421404682E+04  3.3628465966E+01  1.5747913332E+01  5.3373583165E+00  3.5638453240E+00  7.9308228580E-01
  2.0518394649E+04  3.3866153240E+01  1.5740222265E+01  5.4189799360E+00  3.6023562591E+00  7.9489217098E-01
  2.0615384615E+04  3.4104387716E+01  1.5732571198E+01  5.5014554069E+00  3.6409416468E+00  7.9668888698E-01
  2.0712374582E+04  3.4343838173E+01  1.5725126122E+01  5.5847895720E+00  3.6796148276E+00  7.9847243391E-01
  2.0809364548E+04  3.4584333094E+01  1.5717841003E+01  5.6689872784E+00  3.7183685937E+00  8.0024284006E-01
  2.0906354515E+04  3.4825382034E+01  1.5710593113E+01  5.7540533778E+00  3.7571873823E+00  8.0200016228E-01
  2.1003344482E+04  3.5066983690E+01  1.5703382088E+01  5.8399927261E+00  3.7960677699E+00  8.0374445886E-01
  2.1100334448E+04  3.5310205309E+01  1.5696464270E+01  5.9268101836E+00  3.8350342734E+00  8.0547578950E-01
  2.1197324415E+04  3.5554098794E+01  1.5689607899E+01  6.0145106153E+00  3.8740593720E+00  8.0719421518E-01
  2.1294314381E+04  3.5798551947E+01  1.5682785803E+01  6.1030988902E+00  3.9131368202E+00  8.0889979807E-01
  2.1391304348E+04  3.6043767411E+01  1.5676045418E+01  6.1925798817E+00  3.9522687432E+00  8.1059257990E-01
  2.1488294314E+04  3.6290535458E+01  1.5669569455E+01  6.2829584676E+00  3.9914734799E+00  8.1227257841E-01
  2.1585284281E+04  3.6537870239E+01  1.5663125314E+01  6.3742395301E+00  4.0307214791E+00  8.1393981763E-01
  2.1682274247E+04  3.6785770499E+01  1.5656712696E+01  6.4664279555E+00  4.0700094335E+00  8.1559432459E-01
  2.1779264214E+04  3.7034685550E+01  1.5650433498E+01  6.5595286344E+00  4.1093466464E+00  8.1723612918E-01
  2.1876254181E+04  3.7284932008E+01  1.5644356840E+01  6.6535464618E+00  4.1487391817E+00  8.1886526403E-01
  2.1973244147E+04  3.7535751147E+01  1.5638309408E+01  6.7484863367E+00  4.1881628278E+00  8.2048176449E-01
  2.2070234114E+04  3.7787141740E+01  1.5632290933E+01  6.8443531627E+00  4.2276143591E+00  8.2208566843E-01
  2.2167224080E+04  3.8039726646E+01  1.5626438282E+01  6.9411518472E+00  4.2671086490E+00  8.2367701625E-01
  2.2264214047E+04  3.8293494731E+01  1.5620746157E+01  7.0388873020E+00  4.3066427214E+00  8.2525585068E-01
  2.2361204013E+04  3.8547841603E+01  1.5615080834E+01  7.1375680264E+00  4.3461974363E+00  8.2682221679E-01
  2.2458193980E+04  3.8802766063E+01  1.5609442073E+01  7.2378894734E+00  4.3860232038E+00  8.2837616183E-01
  2.2555183946E+04  3.9058986368E+01  1.5603982862E+01  7.3391787720E+00  4.4258846093E+00  8.2991773517E-01
  2.2652173913E+04  3.9316319590E+01  1.5598661363E+01  7.4414410266E+00  4.4657735750E+00  8.3144698689E-01
  2.2749163880E+04  3.9574237865E+01  1.5593364404E+01  7.5446813461E+00  4.5056713309E+00  8.3296396029E-01
  2.2846153846E+04  3.9832740021E+01  1.5588091768E+01  7.6489048442E+00  4.5455747790E+00  8.3446869737E-01
  2.2943143813E+04  4.0092556412E+01  1.5582994313E+01  7.7541166392E+00  4.5855034978E+00  8.3596124251E-01
  2.3040133779E+04  4.0353498558E+01  1.5578030335E+01  7.8603218542E+00  4.6254491607E+00  8.3744164244E-01
  2.3137123746E+04  4.0615032182E+01  1.5573088781E+01  7.9675256169E+00  4.6653923836E+00  8.3890994606E-01
  2.3234113712E+04  4.0877156137E+01  1.5568169456E+01  8.0757330596E+00  4.7053301787E+00  8.4036620440E-01
  2.3331103679E+04  4.1140524304E+01  1.5563403398E+01  8.1849493194E+00  4.7452805000E+00  8.4181047053E-01
  2.3428093645E+04  4.1405119421E+01  1.5558784579E+01  8.2951795379E+00  4.7852403931E+00  8.4324279946E-01
  2.3525083612E+04  4.1670312597E+01  1.5554186203E+01  8.4064288612E+00  4.8251870739E+00  8.4466324803E-01
  2.3622073579E+04  4.1936102709E+01  1.5549608098E+01  8.5187024403E+00  4.8651176715E+00  8.4607187486E-01
  2.3719063545E+04  4.2202973214E+01  1.5545144307E+01  8.6320054304E+00  4.9050452706E+00  8.4746874024E-01
  2.3816053512E+04  4.2471265590E+01  1.5540858972E+01  8.7463429915E+00  4.9449787612E+00  8.4885390606E-01
  2.3913043478E+04  4.2740162759E+01  1.5536592228E+01  8.8617202881E+00  4.9848887482E+00  8.5022743210E-01
  2.4010033445E+04  4.3009663625E+01  1.5532343918E+01  8.9781424892E+00  5.0247724833E+00  8.5158937234E-01
  2.4107023411E+04  4.3279981761E+01  1.5528154413E+01  9.0956147683E+00  5.0646344991E+00  8.5293978171E-01
  2.4204013378E+04  4.3552015900E+01  1.5524191528E+01  9.2141423033E+00  5.1045028695E+00  8.5427871704E-01
  2.4301003344E+04  4.3824661725E+01  1.5520245497E+01  9.3337302768E+00  5.1443379447E+00  8.5560623691E-01
  2.4397993311E+04  4.4097918160E+01  1.5516316182E+01  9.4543838757E+00  5.1841371031E+00  8.5692240158E-01
  2.4494983278E+04  4.4371784138E+01  1.5512403444E+01  9.5761082914E+00  5.2238977551E+00  8.5822727291E-01
  2.4591973244E+04  4.4647444421E+01  1.5508723176E+01  9.6989087197E+00  5.2636587096E+00  8.5952091428E-01
  2.4688963211E+04  4.4923883761E+01  1.5505087529E+01  9.8227903610E+00  5.3033826464E+00  8.6080339050E-01
  2.4785953177E+04  4.5200940780E+01  1.5501466983E+01  9.9477584198E+00  5.3430615183E+00  8.6207476773E-01
  2.4882943144E+04  4.5478614431E+01  1.5497861418E+01  1.0073818105E+01  5.3826928664E+00  8.6333511340E-01
  2.4979933110E+04  4.5757618931E+01  1.5494397524E+01  1.0200974631E+01  5.4222998387E+00  8.6458449708E-01
  2.5076923077E+04  4.6037894303E+01  1.5491062402E+01  1.0329473301E+01  5.4619455271E+00  8.6582301779E-01
  2.5173913043E+04  4.6318794549E+01  1.5487740868E+01  1.0459147771E+01  5.5015550848E+00  8.6705075668E-01
  2.5270903010E+04  4.6600318649E+01  1.5484432815E+01  1.0589941379E+01  5.5411086625E+00  8.6826778073E-01
  2.5367892977E+04  4.6882593702E+01  1.5481160478E+01  1.0721859422E+01  5.5806086680E+00  8.6947415805E-01
  2.5464882943E+04  4.7166730773E+01  1.5478116054E+01  1.0854907204E+01  5.6200941055E+00  8.7066995781E-01
  2.5561872910E+04  4.7451499908E+01  1.5475083799E+01  1.0989090031E+01  5.6595177404E+00  8.7185525015E-01
  2.5658862876E+04  4.7736900108E+01  1.5472063619E+01  1.1124413216E+01  5.6988773632E+00  8.7303010614E-01
  2.5755852843E+04  4.8022930376E+01  1.5469055419E+01  1.1260882076E+01  5.7381707983E+00  8.7419459769E-01
  2.5852842809E+04  4.8310387793E+01  1.5466195785E+01  1.1398501931E+01  5.7774263900E+00  8.7534879751E-01
  2.5949832776E+04  4.8599043768E+01  1.5463443378E+01  1.1537278107E+01  5.8166337894E+00  8.7649277903E-01
  2.6046822742E+04  4.8888337948E+01  1.5460701727E+01  1.1677215934E+01  5.8557696724E+00  8.7762661636E-01
  2.6143812709E+04  4.9178269362E+01  1.5457970749E+01  1.1818320745E+01  5.8948319981E+00  8.7875037894E-01
  2.6240802676E+04  4.9468839897E+01  1.5455250847E+01  1.1960597881E+01  5.9338188717E+00  8.7986412315E-01
  2.6337792642E+04  4.9761399605E+01  1.5452769329E+01  1.2104052684E+01  5.9727817580E+00  8.8096791263E-01
  2.6434782609E+04  5.0054604591E+01  1.5450297328E+01  1.2248690502E+01  6.0116661485E+00  8.8206181253E-01
  2.6531772575E+04  5.0348453904E+01  1.5447834774E+01  1.2394516688E+01  6.0504701361E+00  8.8314588904E-01
  2.6628762542E+04  5.0642946595E+01  1.5445381596E+01  1.2541536597E+01  6.0891918473E+00  8.8422020928E-01
  2.6725752508E+04  5.0938537612E+01  1.5443013640E+01  1.2689755590E+01  6.1278479927E+00  8.8528484129E-01
  2.6822742475E+04  5.1235669195E+01  1.5440802847E+01  1.2839179034E+01  6.1664551530E+00  8.8633985392E-01
  2.6919732441E+04  5.1533452125E+01  1.5438600348E+01  1.2989812297E+01  6.2049755826E+00  8.8738531679E-01
  2.7016722408E+04  5.1831885474E+01  1.5436406083E+01  1.3141660753E+01  6.2434075398E+00  8.8842130020E-01
  2.7113712375E+04  5.2130968320E+01  1.5434219992E+01  1.3294729782E+01  6.2817493159E+00  8.8944787514E-01
  2.7210702341E+04  5.2431497901E+01  1.5432172805E+01  1.3449024765E+01  6.3200327687E+00  8.9046511243E-01
  2.7307692308E+04  5.2733229136E+01  1.5430222395E+01  1.3604551089E+01  6.3582463981E+00  8.9147307864E-01
  2.7404682274E+04  5.3035617755E+01  1.5428279146E+01  1.3761322384E+01  6.3963676454E+00  8.9247183908E-01
  2.7501672241E+04  5.3338662855E+01  1.5426343005E+01  1.3919371087E+01  6.4344006512E+00  8.9346145986E-01
  2.7598662207E+04  5.3642363540E+01  1.5424413922E+01  1.4078668204E+01  6.4723363517E+00  8.9444200785E-01
  2.7695652174E+04  5.3947747267E+01  1.5422657784E+01  1.4239219146E+01  6.5102177736E+00  8.9541355062E-01
  2.7792642140E+04  5.4254104743E+01  1.5420958025E+01  1.4401029332E+01  6.5480131698E+00  8.9637615638E-01
  2.7889632107E+04  5.4561125606E+01  1.5419264374E+01  1.4564104182E+01  6.5857077355E+00  8.9732989392E-01
  2.7986622074E+04  5.4868808978E+01  1.5417576787E+01  1.4728449122E+01  6.6233000464E+00  8.9827483257E-01
  2.8083612040E+04  5.5177153987E+01  1.5415895222E+01  1.4894069582E+01  6.6607887100E+00  8.9921104211E-01
  2.8180602007E+04  5.5487305204E+01  1.5414401765E+01  1.5060970995E+01  6.6982234478E+00  9.0013859275E-01
  2.8277591973E+04  5.5798314317E+01  1.5412943486E+01  1.5229158800E+01  6.7355610967E+00  9.0105755294E-01
  2.8374581940E+04  5.6109992784E+01  1.5411490338E+01  1.5398638440E+01  6.7727920164E+00  9.0196798755E-01
  2.8471571906E+04  5.6422339750E+01  1.5410042284E+01  1.5569415360E+01  6.8099149345E+00  9.0286996161E-01
  2.8568561873E+04  5.6735354365E+01  1.5408599291E+01  1.5741495012E+01  6.8469286093E+00  9.0376354075E-01
  2.8665551839E+04  5.7050184449E+01  1.5407341409E+01  1.5914882850E+01  6.8838845032E+00  9.0464879110E-01
  2.8762541806E+04  5.7365869400E+01  1.5406115961E+01  1.6089584335E+01  6.9207378201E+00  9.0552577929E-01
  2.8859531773E+04  5.7682229631E+01  1.5404894735E+01  1.6265604928E+01  6.9574792361E+00  9.0639457233E-01
  2.8956521739E+04  5.7999264308E+01  1.5403677703E+01  1.6442950098E+01  6.9941076249E+00  9.0725523766E-01
  2.9053511706E+04  5.8316972605E+01  1.5402464836E+01  1.6621625316E+01  7.0306218890E+00  9.0810784299E-01
  2.9150501672E+04  5.8636391244E+01  1.5401416603E+01  1.6801636058E+01  7.0670698244E+00  9.0895245636E-01
  2.9247491639E+04  5.8956775036E+01  1.5400415819E+01  1.6982987803E+01  7.1034156904E+00  9.0978914485E-01
  2.9344481605E+04  5.9277839987E+01  1.5399418412E+01  1.7165686036E+01  7.1396451783E+00  9.1061797200E-01
  2.9441471572E+04  5.9599585287E+01  1.5398424361E+01  1.7349736245E+01  7.1757573004E+00  9.1143900100E-01
  2.9538461538E+04  5.9922010130E+01  1.5397433643E+01  1.7535143921E+01  7.2117510971E+00  9.1225229546E-01
  2.9635451505E+04  6.0245925609E+01  1.5396570234E+01  1.7721914560E+01  7.2476648627E+00  9.1305791936E-01
  2.9732441472E+04  6.0571030036E+01  1.5395786392E+01  1.7910053663E+01  7.2834834559E+00  9.1385593701E-01
  2.9829431438E+04  6.0896821454E+01  1.5395005144E+01  1.8099566735E+01  7.3191818522E+00  9.1464641301E-01
  2.9926421405E+04  6.1223299074E+01  1.5394226471E+01  1.8290459282E+01  7.3547591960E+00  9.1542941218E-01
  3.0023411371E+04  6.1550462110E+01  1.5393450356E+01  1.8483025763E+01  7.3902608524E+00  9.1620499955E-01
  3.0120401338E+04  6.1878780915E+01  1.5392747908E+01  1.8677904041E+01  7.4258077473E+00  9.1697324049E-01
  3.0217391304E+04  6.2208624662E+01  1.5392173520E+01  1.8874199708E+01  7.4612721048E+00  9.1773420579E-01
  3.0314381271E+04  6.2539161165E+01  1.5391600994E+01  1.9071918466E+01  7.4966120782E+00  9.1848795777E-01
  3.0411371237E+04  6.2870389656E+01  1.5391030319E+01  1.9271066019E+01  7.5318269176E+00  9.1923455441E-01
  3.0508361204E+04  6.3202309368E+01  1.5390461482E+01  1.9471648075E+01  7.5669158982E+00  9.1997405409E-01
  3.0605351171E+04  6.3534937149E+01  1.5389897104E+01  1.9673670349E+01  7.6018792147E+00  9.2070651560E-01
  3.0702341137E+04  6.3869532872E+01  1.5389524628E+01  1.9877138558E+01  7.6367803925E+00  9.2143199808E-01
  3.0799331104E+04  6.4204827011E+01  1.5389153336E+01  2.0082058424E+01  7.6715544883E+00  9.2215056092E-01
  3.0896321070E+04  6.4540818817E+01  1.5388783221E+01  2.0288435674E+01  7.7062008715E+00  9.2286226382E-01
  3.0993311037E+04  6.4877507546E+01  1.5388414274E+01  2.0496276039E+01  7.7407189351E+00  9.2356716666E-01
  3.1090301003E+04  6.5214892456E+01  1.5388046489E+01  2.0705585255E+01  7.7751080958E+00  9.2426532951E-01
  3.1187290970E+04  6.5553707681E+01  1.5387788232E+01  2.0916369062E+01  7.8094061361E+00  9.2495681257E-01
