#[MATERIAL DEFINITION FOR MC-GPU: interaction mean free path and sampling data from PENELOPE 2006]
#[MATERIAL NAME]
# Lung_3                                                        
#[NOMINAL DENSITY (g/cm^3)]
#   0.55269500
#[NUMBER OF DATA VALUES]
#   1495
#[MEAN FREE PATHS (cm) (ie, average distance between interactions)]
#[Energy (eV)     | Rayleigh        | Compton         | Photoelectric   | TOTAL (+pair prod) (cm) | Rayleigh: max cumul prob F^2]
  5.0000000000E+03  3.3620202375E+00  1.5285067801E+01  4.2810026709E-02  4.2155179813E-02  3.4460286597E-01
  5.0969899666E+03  3.4366833164E+00  1.5108543137E+01  4.5354769799E-02  4.4631771740E-02  3.4955801519E-01
  5.1939799331E+03  3.5121878137E+00  1.4941015248E+01  4.7998328548E-02  4.7201624579E-02  3.5440638475E-01
  5.2909698997E+03  3.5885165810E+00  1.4781867780E+01  5.0742576338E-02  4.9866275121E-02  3.5915274853E-01
  5.3879598662E+03  3.6656522029E+00  1.4630534647E+01  5.3589385971E-02  5.2627245345E-02  3.6380160768E-01
  5.4849498328E+03  3.7435770485E+00  1.4486495161E+01  5.6542461924E-02  5.5487806576E-02  3.6835756168E-01
  5.5819397993E+03  3.8222733255E+00  1.4349269718E+01  5.9624152765E-02  5.8469133711E-02  3.7282508075E-01
  5.6789297659E+03  3.9017231338E+00  1.4218415971E+01  6.2816154131E-02  6.1553233441E-02  3.7720833371E-01
  5.7759197324E+03  3.9819085217E+00  1.4093525417E+01  6.6121121582E-02  6.4742305988E-02  3.8151140258E-01
  5.8729096990E+03  4.0628115411E+00  1.3974220359E+01  6.9541290049E-02  6.8038127644E-02  3.8573831165E-01
  5.9698996656E+03  4.1444143131E+00  1.3860151182E+01  7.3077787471E-02  7.1441397372E-02  3.8989282278E-01
  6.0668896321E+03  4.2266995227E+00  1.3750993524E+01  7.6745014748E-02  7.4965465847E-02  3.9397849517E-01
  6.1638795987E+03  4.3096512511E+00  1.3646445467E+01  8.0539350508E-02  7.8606419285E-02  3.9799890948E-01
  6.2608695652E+03  4.3932549472E+00  1.3546225785E+01  8.4457437161E-02  8.2360610136E-02  4.0195747119E-01
  6.3578595318E+03  4.4774963542E+00  1.3450073240E+01  8.8501290262E-02  8.6229506302E-02  4.0585737300E-01
  6.4548494983E+03  4.5623838583E+00  1.3357867337E+01  9.2672926123E-02  9.0214570504E-02  4.0970161596E-01
  6.5518394649E+03  4.6479071642E+00  1.3269401787E+01  9.6974537565E-02  9.4317403027E-02  4.1349303564E-01
  6.6488294314E+03  4.7340286974E+00  1.3184336591E+01  1.0140804691E-01  9.8539307228E-02  4.1723442986E-01
  6.7458193980E+03  4.8207345482E+00  1.3102473686E+01  1.0597541174E-01  1.0288161262E-01  4.2092846339E-01
  6.8428093645E+03  4.9080112014E+00  1.3023628570E+01  1.1067865188E-01  1.0734568564E-01  4.2457764084E-01
  6.9397993311E+03  4.9958455898E+00  1.2947629293E+01  1.1551978783E-01  1.1193287095E-01  4.2818433642E-01
  7.0367892977E+03  5.0842272612E+00  1.2874327213E+01  1.2052026917E-01  1.1666269765E-01  4.3175080644E-01
  7.1337792642E+03  5.1732059825E+00  1.2803910066E+01  1.2569701306E-01  1.2155034945E-01  4.3527921048E-01
  7.2307692308E+03  5.2627081159E+00  1.2735887230E+01  1.3102148160E-01  1.2656832802E-01  4.3877156993E-01
  7.3277591973E+03  5.3527240315E+00  1.2670126567E+01  1.3649581500E-01  1.3171797016E-01  4.4222978268E-01
  7.4247491639E+03  5.4432445183E+00  1.2606504832E+01  1.4212215506E-01  1.3700058813E-01  4.4565566559E-01
  7.5217391304E+03  5.5342936130E+00  1.2545083472E+01  1.4790264518E-01  1.4241751358E-01  4.4905096215E-01
  7.6187290970E+03  5.6258702615E+00  1.2485797714E+01  1.5383943030E-01  1.4797002824E-01  4.5241733342E-01
  7.7157190635E+03  5.7179234978E+00  1.2428318931E+01  1.5993465690E-01  1.5365931414E-01  4.5575628336E-01
  7.8127090301E+03  5.8104453235E+00  1.2372552697E+01  1.6619047295E-01  1.5948658061E-01  4.5906922910E-01
  7.9096989967E+03  5.9034737053E+00  1.2318656844E+01  1.7260902792E-01  1.6545309019E-01  4.6235754081E-01
  8.0066889632E+03  5.9969844999E+00  1.2266465338E+01  1.7919479241E-01  1.7156210958E-01  4.6562254557E-01
  8.1036789298E+03  6.0909387533E+00  1.2215725959E+01  1.8598005356E-01  1.7784225315E-01  4.6886547678E-01
  8.2006688963E+03  6.1853436843E+00  1.2166437988E+01  1.9293668293E-01  1.8426680726E-01  4.7208742869E-01
  8.2976588629E+03  6.2802473394E+00  1.2118815453E+01  2.0006689613E-01  1.9083700440E-01  4.7528945535E-01
  8.3946488294E+03  6.3755756972E+00  1.2072429695E+01  2.0737291063E-01  1.9755378743E-01  4.7847258534E-01
  8.4916387960E+03  6.4713264678E+00  1.2027236181E+01  2.1485714007E-01  2.0441838794E-01  4.8163780781E-01
  8.5886287625E+03  6.5675726309E+00  1.1983580068E+01  2.2252448469E-01  2.1143444797E-01  4.8478598200E-01
  8.6856187291E+03  6.6642262978E+00  1.1940979424E+01  2.3037449227E-01  2.1860033057E-01  4.8791790626E-01
  8.7826086957E+03  6.7612927821E+00  1.1899435092E+01  2.3840939351E-01  2.2591702420E-01  4.9103436478E-01
  8.8795986622E+03  6.8588328874E+00  1.1859230681E+01  2.4663142089E-01  2.3338566458E-01  4.9413612336E-01
  8.9765886288E+03  6.9567645052E+00  1.1819928866E+01  2.5504280872E-01  2.4100693137E-01  4.9722385156E-01
  9.0735785953E+03  7.0551147278E+00  1.1781643756E+01  2.6368578317E-01  2.4881740258E-01  5.0029814686E-01
  9.1705685619E+03  7.1539035096E+00  1.1744451058E+01  2.7253790156E-01  2.5679578953E-01  5.0335959857E-01
  9.2675585284E+03  7.2530704416E+00  1.1708032878E+01  2.8158910119E-01  2.6493168924E-01  5.0640878596E-01
  9.3645484950E+03  7.3526775059E+00  1.1672666686E+01  2.9084169666E-01  2.7322616039E-01  5.0944621164E-01
  9.4615384615E+03  7.4526786669E+00  1.1638111641E+01  3.0029800474E-01  2.8167982652E-01  5.1247231516E-01
  9.5585284281E+03  7.5530657991E+00  1.1604313505E+01  3.0996335657E-01  2.9029605123E-01  5.1548753218E-01
  9.6555183946E+03  7.6538877605E+00  1.1571477711E+01  3.1983833400E-01  2.9907422980E-01  5.1849229020E-01
  9.7525083612E+03  7.7550678668E+00  1.1539239852E+01  3.2992423551E-01  3.0801381031E-01  5.2148694618E-01
  9.8494983278E+03  7.8566769878E+00  1.1507901350E+01  3.4022339329E-01  3.1711578246E-01  5.2447181511E-01
  9.9464882943E+03  7.9586565390E+00  1.1477187944E+01  3.5073814169E-01  3.2638049365E-01  5.2744721201E-01
  1.0043478261E+04  8.0610257567E+00  1.1447170826E+01  3.6149173116E-01  3.3582667561E-01  5.3041346399E-01
  1.0140468227E+04  8.1637944248E+00  1.1417869060E+01  3.7249305978E-01  3.4546039175E-01  5.3337081723E-01
  1.0237458194E+04  8.2669202830E+00  1.1389097225E+01  3.8371943342E-01  3.5526022227E-01  5.3631944720E-01
  1.0334448161E+04  8.3704750527E+00  1.1361110074E+01  3.9517325056E-01  3.6522705972E-01  5.3925953185E-01
  1.0431438127E+04  8.4743657733E+00  1.1333541325E+01  4.0685691210E-01  3.7536083881E-01  5.4219125183E-01
  1.0528428094E+04  8.5786994640E+00  1.1306757278E+01  4.1877282134E-01  3.8566260166E-01  5.4511479042E-01
  1.0625418060E+04  8.6833715795E+00  1.1280373947E+01  4.3092338399E-01  3.9613211592E-01  5.4803033343E-01
  1.0722408027E+04  8.7884691229E+00  1.1254667992E+01  4.4331100806E-01  4.0677025591E-01  5.5093804685E-01
  1.0819397993E+04  8.8939217227E+00  1.1229392561E+01  4.5593810394E-01  4.1757689443E-01  5.5383799879E-01
  1.0916387960E+04  8.9997855226E+00  1.1204709341E+01  4.6880708431E-01  4.2855266143E-01  5.5673023933E-01
  1.1013377926E+04  9.1060173867E+00  1.1180469766E+01  4.8192036417E-01  4.3969750815E-01  5.5961482282E-01
  1.1110367893E+04  9.2126501313E+00  1.1156757463E+01  4.9528036076E-01  4.5101185220E-01  5.6249180739E-01
  1.1207357860E+04  9.3196596947E+00  1.1133486751E+01  5.0891588078E-01  4.6251747816E-01  5.6536125479E-01
  1.1304347826E+04  9.4270643406E+00  1.1110696795E+01  5.2287392670E-01  4.7425105317E-01  5.6822322993E-01
  1.1401337793E+04  9.5348496579E+00  1.1088332617E+01  5.3709035277E-01  4.8615729560E-01  5.7107776365E-01
  1.1498327759E+04  9.6430294151E+00  1.1066419429E+01  5.5156767490E-01  4.9823637603E-01  5.7392482955E-01
  1.1595317726E+04  9.7515881262E+00  1.1044903770E+01  5.6630841172E-01  5.1048819585E-01  5.7676440171E-01
  1.1692307692E+04  9.8605464440E+00  1.1023824523E+01  5.8131508455E-01  5.2291290236E-01  5.7959645847E-01
  1.1789297659E+04  9.9698757409E+00  1.1003103369E+01  5.9659021740E-01  5.3551021152E-01  5.8242098221E-01
  1.1886287625E+04  1.0079616294E+01  1.0982817777E+01  6.1213633692E-01  5.4828034986E-01  5.8523795927E-01
  1.1983277592E+04  1.0189712888E+01  1.0962840826E+01  6.2795597239E-01  5.6122273390E-01  5.8804736755E-01
  1.2080267559E+04  1.0300239565E+01  1.0943310948E+01  6.4405165573E-01  5.7433779479E-01  5.9084913830E-01
  1.2177257525E+04  1.0411099653E+01  1.0924031348E+01  6.6042592142E-01  5.8762451204E-01  5.9364319627E-01
  1.2274247492E+04  1.0522416541E+01  1.0905221413E+01  6.7708130653E-01  6.0108367170E-01  5.9642947067E-01
  1.2371237458E+04  1.0634035780E+01  1.0886595525E+01  6.9402035070E-01  6.1471365295E-01  5.9920789505E-01
  1.2468227425E+04  1.0746147254E+01  1.0868471833E+01  7.1124559606E-01  6.2851577456E-01  6.0197840704E-01
  1.2565217391E+04  1.0858558209E+01  1.0850518401E+01  7.2878021249E-01  6.4250399363E-01  6.0474097864E-01
  1.2662207358E+04  1.0971434726E+01  1.0832991690E+01  7.4661725628E-01  6.5667180117E-01  6.0749557510E-01
  1.2759197324E+04  1.1084648549E+01  1.0815685862E+01  7.6474946436E-01  6.7100991287E-01  6.1024209856E-01
  1.2856187291E+04  1.1198287806E+01  1.0798718362E+01  7.8317941446E-01  6.8551861936E-01  6.1298045485E-01
  1.2953177258E+04  1.1312319154E+01  1.0782035939E+01  8.0190968694E-01  7.0019710566E-01  6.1571055406E-01
  1.3050167224E+04  1.1426719723E+01  1.0765595641E+01  8.2094286474E-01  7.1504455823E-01  6.1843231070E-01
  1.3147157191E+04  1.1541584086E+01  1.0749513907E+01  8.4028153337E-01  7.3006129213E-01  6.2114564244E-01
  1.3244147157E+04  1.1656746090E+01  1.0733574136E+01  8.5992828090E-01  7.4524504530E-01  6.2385042442E-01
  1.3341137124E+04  1.1772456265E+01  1.0718067861E+01  8.7988569794E-01  7.6059758010E-01  6.2654652178E-01
  1.3438127090E+04  1.1888467544E+01  1.0702699714E+01  9.0015637763E-01  7.7611576022E-01  6.2923380454E-01
  1.3535117057E+04  1.2004947288E+01  1.0687648492E+01  9.2074291560E-01  7.9180047101E-01  6.3191214747E-01
  1.3632107023E+04  1.2121824384E+01  1.0672831939E+01  9.4164790998E-01  8.0765023560E-01  6.3458143006E-01
  1.3729096990E+04  1.2239067323E+01  1.0658208924E+01  9.6292686705E-01  8.2370258028E-01  6.3724153635E-01
  1.3826086957E+04  1.2356827155E+01  1.0643924928E+01  9.8462281353E-01  8.3998703456E-01  6.3989235490E-01
  1.3923076923E+04  1.2474884947E+01  1.0629759729E+01  1.0066504756E+00  8.5643566790E-01  6.4253377864E-01
  1.4020066890E+04  1.2593484845E+01  1.0615935016E+01  1.0290125537E+00  8.7305013349E-01  6.4516570484E-01
  1.4117056856E+04  1.2712443647E+01  1.0602278056E+01  1.0517117513E+00  8.8982751446E-01  6.4778803316E-01
  1.4214046823E+04  1.2831804773E+01  1.0588820616E+01  1.0747507746E+00  9.0676723149E-01  6.5040063660E-01
  1.4311036789E+04  1.2951682399E+01  1.0575654998E+01  1.0981323328E+00  9.2386954763E-01  6.5300337652E-01
  1.4408026756E+04  1.3071858898E+01  1.0562594510E+01  1.1218591377E+00  9.4113091665E-01  6.5559612081E-01
  1.4505016722E+04  1.3192607066E+01  1.0549851716E+01  1.1459339043E+00  9.5855333237E-01  6.5817874227E-01
  1.4602006689E+04  1.3313721935E+01  1.0537261009E+01  1.1703593499E+00  9.7613332170E-01  6.6075111854E-01
  1.4698996656E+04  1.3435221619E+01  1.0524831164E+01  1.1951381950E+00  9.9386986363E-01  6.6331313206E-01
  1.4795986622E+04  1.3557293466E+01  1.0512695172E+01  1.2202731628E+00  1.0117640181E+00  6.6586466994E-01
  1.4892976589E+04  1.3679665993E+01  1.0500652332E+01  1.2457669790E+00  1.0298112673E+00  6.6840562388E-01
  1.4989966555E+04  1.3802575810E+01  1.0488862352E+01  1.2716223724E+00  1.0480132004E+00  6.7093589015E-01
  1.5086956522E+04  1.3925926147E+01  1.0477255084E+01  1.2979127687E+00  1.0664150960E+00  6.7345536864E-01
  1.5183946488E+04  1.4049577791E+01  1.0465734918E+01  1.3245809808E+00  1.0849727289E+00  6.7596394618E-01
  1.5280936455E+04  1.4173917938E+01  1.0454544807E+01  1.3516217740E+00  1.1036842373E+00  6.7846150155E-01
  1.5377926421E+04  1.4298570082E+01  1.0443442780E+01  1.3790379323E+00  1.1225434146E+00  6.8094791891E-01
  1.5474916388E+04  1.4423640528E+01  1.0432490802E+01  1.4068322429E+00  1.1415501462E+00  6.8342308734E-01
  1.5571906355E+04  1.4549314926E+01  1.0421795041E+01  1.4350074956E+00  1.1607054900E+00  6.8588690081E-01
  1.5668896321E+04  1.4675293797E+01  1.0411176555E+01  1.4635664833E+00  1.1800039429E+00  6.8833925804E-01
  1.5765886288E+04  1.4801809415E+01  1.0400762836E+01  1.4925120014E+00  1.1994471060E+00  6.9078006250E-01
  1.5862876254E+04  1.4928835037E+01  1.0390535256E+01  1.5218468485E+00  1.2190331453E+00  6.9320922226E-01
  1.5959866221E+04  1.5056166491E+01  1.0380379986E+01  1.5515738258E+00  1.2387576049E+00  6.9562664995E-01
  1.6056856187E+04  1.5184142750E+01  1.0370471063E+01  1.5816957373E+00  1.2586236767E+00  6.9803225769E-01
  1.6153846154E+04  1.5312546098E+01  1.0360692264E+01  1.6122153899E+00  1.2786267102E+00  7.0042594719E-01
  1.6250836120E+04  1.5441256879E+01  1.0350981142E+01  1.6431355933E+00  1.2987632553E+00  7.0280762307E-01
  1.6347826087E+04  1.5570706800E+01  1.0341545344E+01  1.6744591596E+00  1.3190380124E+00  7.0517719482E-01
  1.6444816054E+04  1.5700515236E+01  1.0332197117E+01  1.7061889041E+00  1.3394437226E+00  7.0753457674E-01
  1.6541806020E+04  1.5830637635E+01  1.0322914374E+01  1.7383276445E+00  1.3599779067E+00  7.0987968788E-01
  1.6638795987E+04  1.5961566925E+01  1.0313919553E+01  1.7708782014E+00  1.3806463995E+00  7.1221245187E-01
  1.6735785953E+04  1.6092808651E+01  1.0304984781E+01  1.8038433980E+00  1.4014399101E+00  7.1453279696E-01
  1.6832775920E+04  1.6224398069E+01  1.0296124885E+01  1.8372260603E+00  1.4223571090E+00  7.1684065582E-01
  1.6929765886E+04  1.6356787352E+01  1.0287531263E+01  1.8710290167E+00  1.4434034183E+00  7.1913596109E-01
  1.7026755853E+04  1.6489491371E+01  1.0278993845E+01  1.9052550985E+00  1.4645693517E+00  7.2141863874E-01
  1.7123745819E+04  1.6622552110E+01  1.0270529311E+01  1.9399071396E+00  1.4858536529E+00  7.2368861797E-01
  1.7220735786E+04  1.6756430934E+01  1.0262321478E+01  1.9749879765E+00  1.5072621057E+00  7.2594583268E-01
  1.7317725753E+04  1.6890627027E+01  1.0254166248E+01  2.0105004483E+00  1.5287846412E+00  7.2819022137E-01
  1.7414715719E+04  1.7025160245E+01  1.0246070943E+01  2.0464473967E+00  1.5504196004E+00  7.3042172705E-01
  1.7511705686E+04  1.7160558577E+01  1.0238234404E+01  2.0828676212E+00  1.5721946029E+00  7.3264029717E-01
  1.7608695652E+04  1.7296276942E+01  1.0230447093E+01  2.1199949694E+00  1.5942286837E+00  7.3484588349E-01
  1.7705685619E+04  1.7432314327E+01  1.0222708431E+01  2.1575743374E+00  1.6163716072E+00  7.3703845647E-01
  1.7802675585E+04  1.7569225527E+01  1.0215217517E+01  2.1956087003E+00  1.6386312286E+00  7.3921803743E-01
  1.7899665552E+04  1.7706493620E+01  1.0207784948E+01  2.2341010362E+00  1.6609964899E+00  7.4138459028E-01
  1.7996655518E+04  1.7844083708E+01  1.0200397908E+01  2.2730543260E+00  1.6834646520E+00  7.4353807510E-01
  1.8093645485E+04  1.7982477117E+01  1.0193221649E+01  2.3124715540E+00  1.7060425453E+00  7.4567845613E-01
  1.8190635452E+04  1.8121320900E+01  1.0186131542E+01  2.3523557074E+00  1.7287217609E+00  7.4780570160E-01
  1.8287625418E+04  1.8260489822E+01  1.0179084031E+01  2.3927097763E+00  1.7514978466E+00  7.4991978372E-01
  1.8384615385E+04  1.8400352780E+01  1.0172200371E+01  2.4335367541E+00  1.7743757610E+00  7.5202067854E-01
  1.8481605351E+04  1.8540798624E+01  1.0165441117E+01  2.4748396369E+00  1.7973514682E+00  7.5410835722E-01
  1.8578595318E+04  1.8681572922E+01  1.0158721698E+01  2.5166214238E+00  1.8204179466E+00  7.5618275682E-01
  1.8675585284E+04  1.8822889697E+01  1.0152109485E+01  2.5588851172E+00  1.8435772863E+00  7.5824387683E-01
  1.8772575251E+04  1.8964964391E+01  1.0145670096E+01  2.6016385185E+00  1.8668343146E+00  7.6029173018E-01
  1.8869565217E+04  1.9107371021E+01  1.0139267945E+01  2.6448824589E+00  1.8901772650E+00  7.6232633239E-01
  1.8966555184E+04  1.9250122682E+01  1.0132906870E+01  2.6886175468E+00  1.9136029533E+00  7.6434770145E-01
  1.9063545151E+04  1.9393853413E+01  1.0126776940E+01  2.7328467993E+00  1.9371224670E+00  7.6635585775E-01
  1.9160535117E+04  1.9537919728E+01  1.0120681797E+01  2.7775732361E+00  1.9607204762E+00  7.6835082402E-01
  1.9257525084E+04  1.9682320707E+01  1.0114621071E+01  2.8227998801E+00  1.9843947448E+00  7.7033261227E-01
  1.9354515050E+04  1.9827498353E+01  1.0108722000E+01  2.8685297568E+00  2.0081526121E+00  7.7230119312E-01
  1.9451505017E+04  1.9973252088E+01  1.0102924141E+01  2.9147658949E+00  2.0319878386E+00  7.7425655162E-01
  1.9548494983E+04  2.0119344318E+01  1.0097158420E+01  2.9615113257E+00  2.0558931334E+00  7.7619867794E-01
  1.9645484950E+04  2.0265929163E+01  1.0091467403E+01  3.0087690834E+00  2.0798697100E+00  7.7812756596E-01
  1.9742474916E+04  2.0413398411E+01  1.0085957596E+01  3.0565422053E+00  2.1039243211E+00  7.8004321323E-01
  1.9839464883E+04  2.0561210154E+01  1.0080477777E+01  3.1048337313E+00  2.1280428244E+00  7.8194562081E-01
  1.9936454849E+04  2.0709363506E+01  1.0075027638E+01  3.1536467040E+00  2.1522229828E+00  7.8383479314E-01
  2.0033444816E+04  2.0858385271E+01  1.0069746391E+01  3.2030085840E+00  2.1764860969E+00  7.8571073477E-01
  2.0130434783E+04  2.1007943977E+01  1.0064543803E+01  3.2529456905E+00  2.2008329609E+00  7.8757344795E-01
  2.0227424749E+04  2.1157848460E+01  1.0059368890E+01  3.3034153384E+00  2.2252356577E+00  7.8942293787E-01
  2.0324414716E+04  2.1308233576E+01  1.0054256222E+01  3.3544206063E+00  2.2496952124E+00  7.9125921317E-01
  2.0421404682E+04  2.1459560524E+01  1.0049322488E+01  3.4059645762E+00  2.2742207303E+00  7.9308228580E-01
  2.0518394649E+04  2.1611237512E+01  1.0044414536E+01  3.4580503325E+00  2.2987959739E+00  7.9489217098E-01
  2.0615384615E+04  2.1763263690E+01  1.0039532108E+01  3.5106809628E+00  2.3234187284E+00  7.9668888698E-01
  2.0712374582E+04  2.1916065831E+01  1.0034781132E+01  3.5638595575E+00  2.3480975070E+00  7.9847243391E-01
  2.0809364548E+04  2.2069534482E+01  1.0030132230E+01  3.6175892095E+00  2.3728277100E+00  8.0024284006E-01
  2.0906354515E+04  2.2223356673E+01  1.0025507084E+01  3.6718730151E+00  2.3975994062E+00  8.0200016228E-01
  2.1003344482E+04  2.2377531572E+01  1.0020905464E+01  3.7267140729E+00  2.4224104110E+00  8.0374445886E-01
  2.1100334448E+04  2.2532740230E+01  1.0016490950E+01  3.7821154845E+00  2.4472763696E+00  8.0547578950E-01
  2.1197324415E+04  2.2688377630E+01  1.0012115648E+01  3.8380803544E+00  2.4721797198E+00  8.0719421518E-01
  2.1294314381E+04  2.2844372175E+01  1.0007762217E+01  3.8946117896E+00  2.4971164762E+00  8.0889979807E-01
  2.1391304348E+04  2.3000853178E+01  1.0003460930E+01  3.9517129002E+00  2.5220879950E+00  8.1059257990E-01
  2.1488294314E+04  2.3158324941E+01  9.9993283801E+00  4.0093867988E+00  2.5471059789E+00  8.1227257841E-01
  2.1585284281E+04  2.3316158358E+01  9.9952161366E+00  4.0676366008E+00  2.5721515702E+00  8.1393981763E-01
  2.1682274247E+04  2.3474352629E+01  9.9911240092E+00  4.1264654244E+00  2.5972226584E+00  8.1559432459E-01
  2.1779264214E+04  2.3633194474E+01  9.9871170225E+00  4.1858763906E+00  2.6223251802E+00  8.1723612918E-01
  2.1876254181E+04  2.3792885940E+01  9.9832392836E+00  4.2458726229E+00  2.6474630053E+00  8.1886526403E-01
  2.1973244147E+04  2.3952942854E+01  9.9793801947E+00  4.3064572477E+00  2.6726206833E+00  8.2048176449E-01
  2.2070234114E+04  2.4113364434E+01  9.9755395842E+00  4.3676333940E+00  2.6977961559E+00  8.2208566843E-01
  2.2167224080E+04  2.4274548149E+01  9.9718047926E+00  4.4294041935E+00  2.7229989143E+00  8.2367701625E-01
  2.2264214047E+04  2.4436486894E+01  9.9681724382E+00  4.4917727806E+00  2.7482270595E+00  8.2525585068E-01
  2.2361204013E+04  2.4598794985E+01  9.9645571878E+00  4.5547445790E+00  2.7734683773E+00  8.2682221679E-01
  2.2458193980E+04  2.4761471655E+01  9.9609588869E+00  4.6187633827E+00  2.7988826638E+00  8.2837616183E-01
  2.2555183946E+04  2.4924975253E+01  9.9574751637E+00  4.6833998082E+00  2.8243196922E+00  8.2991773517E-01
  2.2652173913E+04  2.5089189042E+01  9.9540793196E+00  4.7486571127E+00  2.8497743078E+00  8.3144698689E-01
  2.2749163880E+04  2.5253776177E+01  9.9506991351E+00  4.8145385563E+00  2.8752345327E+00  8.3296396029E-01
  2.2846153846E+04  2.5418735906E+01  9.9473344719E+00  4.8810474023E+00  2.9006983900E+00  8.3446869737E-01
  2.2943143813E+04  2.5584534298E+01  9.9440815988E+00  4.9481869170E+00  2.9261783735E+00  8.3596124251E-01
  2.3040133779E+04  2.5751051075E+01  9.9409139020E+00  5.0159603694E+00  2.9516691697E+00  8.3744164244E-01
  2.3137123746E+04  2.5917945296E+01  9.9377605147E+00  5.0843710318E+00  2.9771584088E+00  8.3890994606E-01
  2.3234113712E+04  2.6085216229E+01  9.9346213127E+00  5.1534221794E+00  3.0026441842E+00  8.4036620440E-01
  2.3331103679E+04  2.6253281139E+01  9.9315799159E+00  5.2231170903E+00  3.0281379530E+00  8.4181047053E-01
  2.3428093645E+04  2.6422129012E+01  9.9286324773E+00  5.2934590454E+00  3.0536378300E+00  8.4324279946E-01
  2.3525083612E+04  2.6591358528E+01  9.9256980849E+00  5.3644513289E+00  3.0791292757E+00  8.4466324803E-01
  2.3622073579E+04  2.6760968970E+01  9.9227766275E+00  5.4360972275E+00  3.1046104581E+00  8.4607187486E-01
  2.3719063545E+04  2.6931268851E+01  9.9199281186E+00  5.5084000313E+00  3.1300897271E+00  8.4746874024E-01
  2.3816053512E+04  2.7102476080E+01  9.9171934887E+00  5.5813630328E+00  3.1555727557E+00  8.4885390606E-01
  2.3913043478E+04  2.7274069250E+01  9.9144707221E+00  5.6549895277E+00  3.1810407857E+00  8.5022743210E-01
  2.4010033445E+04  2.7446047662E+01  9.9117597196E+00  5.7292828146E+00  3.2064920634E+00  8.5158937234E-01
  2.4107023411E+04  2.7618547602E+01  9.9090862421E+00  5.8042461949E+00  3.2319294813E+00  8.5293978171E-01
  2.4204013378E+04  2.7792142588E+01  9.9065573798E+00  5.8798829728E+00  3.2573709543E+00  8.5427871704E-01
  2.4301003344E+04  2.7966127913E+01  9.9040392725E+00  5.9561964555E+00  3.2827911803E+00  8.5560623691E-01
  2.4397993311E+04  2.8140502891E+01  9.9015318316E+00  6.0331899529E+00  3.3081884866E+00  8.5692240158E-01
  2.4494983278E+04  2.8315266841E+01  9.8990349700E+00  6.1108667779E+00  3.3335612204E+00  8.5822727291E-01
  2.4591973244E+04  2.8491175802E+01  9.8966864555E+00  6.1892302462E+00  3.3589341474E+00  8.5952091428E-01
  2.4688963211E+04  2.8667581909E+01  9.8943664152E+00  6.2682836761E+00  3.3842834520E+00  8.6080339050E-01
  2.4785953177E+04  2.8844382179E+01  9.8920560120E+00  6.3480303890E+00  3.4096039989E+00  8.6207476773E-01
  2.4882943144E+04  2.9021575944E+01  9.8897551683E+00  6.4284737090E+00  3.4348942192E+00  8.6333511340E-01
  2.4979933110E+04  2.9199618974E+01  9.8875447300E+00  6.5096169630E+00  3.4601688845E+00  8.6458449708E-01
  2.5076923077E+04  2.9378472993E+01  9.8854164662E+00  6.5916166889E+00  3.4854682559E+00  8.6582301779E-01
  2.5173913043E+04  2.9557725768E+01  9.8832968734E+00  6.6743667361E+00  3.5107445709E+00  8.6705075668E-01
  2.5270903010E+04  2.9737376647E+01  9.8811858832E+00  6.7578309458E+00  3.5359851631E+00  8.6826778073E-01
  2.5367892977E+04  2.9917506736E+01  9.8790976844E+00  6.8420126993E+00  3.5611915689E+00  8.6947415805E-01
  2.5464882943E+04  3.0098825048E+01  9.8771549257E+00  6.9269153804E+00  3.5863886783E+00  8.7066995781E-01
  2.5561872910E+04  3.0280546703E+01  9.8752199324E+00  7.0125423760E+00  3.6115463491E+00  8.7185525015E-01
  2.5658862876E+04  3.0462671064E+01  9.8732926441E+00  7.0988970759E+00  3.6366631716E+00  8.7303010614E-01
  2.5755852843E+04  3.0645197494E+01  9.8713730012E+00  7.1859828728E+00  3.6617377572E+00  8.7419459769E-01
  2.5852842809E+04  3.0828634641E+01  9.8695481637E+00  7.2738031620E+00  3.6867881935E+00  8.7534879751E-01
  2.5949832776E+04  3.1012836631E+01  9.8677917518E+00  7.3623613421E+00  3.7118078766E+00  8.7649277903E-01
  2.6046822742E+04  3.1197445884E+01  9.8660422033E+00  7.4516608142E+00  3.7367819224E+00  8.7762661636E-01
  2.6143812709E+04  3.1382461778E+01  9.8642994658E+00  7.5417049825E+00  3.7617090286E+00  8.7875037894E-01
  2.6240802676E+04  3.1567885520E+01  9.8625637965E+00  7.6324972538E+00  3.7865879860E+00  8.7986412315E-01
  2.6337792642E+04  3.1754578626E+01  9.8609802484E+00  7.7240410379E+00  3.8114516363E+00  8.8096791263E-01
  2.6434782609E+04  3.1941683508E+01  9.8594027739E+00  7.8163397474E+00  3.8362651956E+00  8.8206181253E-01
  2.6531772575E+04  3.2129199558E+01  9.8578313276E+00  7.9093967978E+00  3.8610274467E+00  8.8314588904E-01
  2.6628762542E+04  3.2317126172E+01  9.8562658646E+00  8.0032156071E+00  3.8857371943E+00  8.8422020928E-01
  2.6725752508E+04  3.2505753667E+01  9.8547547848E+00  8.0977995963E+00  3.9104051019E+00  8.8528484129E-01
  2.6822742475E+04  3.2695364255E+01  9.8533439964E+00  8.1931521894E+00  3.9350417503E+00  8.8633985392E-01
  2.6919732441E+04  3.2885390491E+01  9.8519385010E+00  8.2892768127E+00  3.9596230527E+00  8.8738531679E-01
  2.7016722408E+04  3.3075831783E+01  9.8505382598E+00  8.3861768958E+00  3.9841478976E+00  8.8842130020E-01
  2.7113712375E+04  3.3266687543E+01  9.8491432344E+00  8.4838558706E+00  4.0086151946E+00  8.8944787514E-01
  2.7210702341E+04  3.3458466518E+01  9.8478368495E+00  8.5823171721E+00  4.0330452733E+00  8.9046511243E-01
  2.7307692308E+04  3.3651012313E+01  9.8465922213E+00  8.6815642378E+00  4.0574307952E+00  8.9147307864E-01
  2.7404682274E+04  3.3843977608E+01  9.8453521624E+00  8.7816057647E+00  4.0817573647E+00  8.9247183908E-01
  2.7501672241E+04  3.4037361828E+01  9.8441166398E+00  8.8824624531E+00  4.1060276241E+00  8.9346145986E-01
  2.7598662207E+04  3.4231164401E+01  9.8428856212E+00  8.9841157999E+00  4.1302357893E+00  8.9444200785E-01
  2.7695652174E+04  3.4426040985E+01  9.8417649647E+00  9.0865692593E+00  4.1544093173E+00  8.9541355062E-01
  2.7792642140E+04  3.4621538954E+01  9.8406802859E+00  9.1898262880E+00  4.1785279493E+00  8.9637615638E-01
  2.7889632107E+04  3.4817460255E+01  9.8395995047E+00  9.2938903456E+00  4.2025822375E+00  8.9732989392E-01
  2.7986622074E+04  3.5013804327E+01  9.8385225936E+00  9.3987648941E+00  4.2265712733E+00  8.9827483257E-01
  2.8083612040E+04  3.5210570614E+01  9.8374495255E+00  9.5044533987E+00  4.2504941678E+00  8.9921104211E-01
  2.8180602007E+04  3.5408489509E+01  9.8364964952E+00  9.6109593268E+00  4.2743826503E+00  9.0013859275E-01
  2.8277591973E+04  3.5606955858E+01  9.8355659139E+00  9.7182861489E+00  4.2982091769E+00  9.0105755294E-01
  2.8374581940E+04  3.5805849347E+01  9.8346386065E+00  9.8264373379E+00  4.3219675955E+00  9.0196798755E-01
  2.8471571906E+04  3.6005169430E+01  9.8337145504E+00  9.9354163695E+00  4.3456570945E+00  9.0286996161E-01
  2.8568561873E+04  3.6204915564E+01  9.8327937231E+00  1.0045226722E+01  4.3692768812E+00  9.0376354075E-01
  2.8665551839E+04  3.6405820216E+01  9.8319910225E+00  1.0155871877E+01  4.3928597959E+00  9.0464879110E-01
  2.8762541806E+04  3.6607270390E+01  9.8312090190E+00  1.0267355317E+01  4.4163772523E+00  9.0552577929E-01
  2.8859531773E+04  3.6809151484E+01  9.8304297099E+00  1.0379680529E+01  4.4398233007E+00  9.0639457233E-01
  2.8956521739E+04  3.7011462968E+01  9.8296530770E+00  1.0492851002E+01  4.4631972223E+00  9.0725523766E-01
  2.9053511706E+04  3.7214204313E+01  9.8288791021E+00  1.0606870228E+01  4.4864983167E+00  9.0810784299E-01
  2.9150501672E+04  3.7418037091E+01  9.8282101863E+00  1.0721741701E+01  4.5097570843E+00  9.0895245636E-01
  2.9247491639E+04  3.7622485768E+01  9.8275715488E+00  1.0837468917E+01  4.5329507177E+00  9.0978914485E-01
  2.9344481605E+04  3.7827369117E+01  9.8269350670E+00  1.0954055377E+01  4.5560700860E+00  9.1061797200E-01
  2.9441471572E+04  3.8032686623E+01  9.8263007264E+00  1.1071504582E+01  4.5791145588E+00  9.1143900100E-01
  2.9538461538E+04  3.8238437769E+01  9.8256685129E+00  1.1189820037E+01  4.6020835238E+00  9.1225229546E-01
  2.9635451505E+04  3.8445140145E+01  9.8251175396E+00  1.1309005248E+01  4.6250014181E+00  9.1305791936E-01
  2.9732441472E+04  3.8652601233E+01  9.8246173417E+00  1.1429063727E+01  4.6478585793E+00  9.1385593701E-01
  2.9829431438E+04  3.8860500715E+01  9.8241187982E+00  1.1549998986E+01  4.6706390385E+00  9.1464641301E-01
  2.9926421405E+04  3.9068838088E+01  9.8236218983E+00  1.1671814539E+01  4.6933422496E+00  9.1542941218E-01
  3.0023411371E+04  3.9277612849E+01  9.8231266312E+00  1.1794698290E+01  4.7159971618E+00  9.1620499955E-01
  3.0120401338E+04  3.9487125150E+01  9.8226783728E+00  1.1919057284E+01  4.7386809424E+00  9.1697324049E-01
  3.0217391304E+04  3.9697610572E+01  9.8223118350E+00  1.2044320767E+01  4.7613120527E+00  9.1773420579E-01
  3.0314381271E+04  3.9908538068E+01  9.8219464854E+00  1.2170492375E+01  4.7838637891E+00  9.1848795777E-01
  3.0411371237E+04  4.0119907145E+01  9.8215823164E+00  1.2297575751E+01  4.8063356729E+00  9.1923455441E-01
  3.0508361204E+04  4.0331717317E+01  9.8212193204E+00  1.2425574536E+01  4.8287272414E+00  9.1997405409E-01
  3.0605351171E+04  4.0543979334E+01  9.8208591702E+00  1.2554492376E+01  4.8510386192E+00  9.2070651560E-01
  3.0702341137E+04  4.0757497166E+01  9.8206214797E+00  1.2684332921E+01  4.8733103439E+00  9.2143199808E-01
  3.0799331104E+04  4.0971460684E+01  9.8203845447E+00  1.2815099821E+01  4.8955009730E+00  9.2215056092E-01
  3.0896321070E+04  4.1185869409E+01  9.8201483603E+00  1.2946796732E+01  4.9176101039E+00  9.2286226382E-01
  3.0993311037E+04  4.1400722865E+01  9.8199129218E+00  1.3079427311E+01  4.9396373494E+00  9.2356716666E-01
  3.1090301003E+04  4.1616020580E+01  9.8196782246E+00  1.3212995217E+01  4.9615823372E+00  9.2426532951E-01
  3.1187290970E+04  4.1832231033E+01  9.8195134215E+00  1.3347504114E+01  4.9834691777E+00  9.2495681257E-01
