#[MATERIAL DEFINITION FOR MC-GPU: interaction mean free path and sampling data from PENELOPE 2006]
#[MATERIAL NAME]
# lyso_0.9                                                      
#[NOMINAL DENSITY (g/cm^3)]
#   7.10500000
#[NUMBER OF DATA VALUES]
#   1495
#[MEAN FREE PATHS (cm) (ie, average distance between interactions)]
#[Energy (eV)     | Rayleigh        | Compton         | Photoelectric   | TOTAL (+pair prod) (cm) | Rayleigh: max cumul prob F^2]
  5.0000000000E+03  2.5856747525E-02  2.5432089346E+00  3.6181455974E-04  3.5677148450E-04  1.2780895713E-01
  5.0969899666E+03  2.6148225220E-02  2.5144034366E+00  3.7997713905E-04  3.7447874959E-04  1.3127623656E-01
  5.1939799331E+03  2.6442362499E-02  2.4866558695E+00  3.9868185378E-04  3.9269803110E-04  1.3474232985E-01
  5.2909698997E+03  2.6739182727E-02  2.4599084318E+00  4.1793425463E-04  4.1143363233E-04  1.3820596912E-01
  5.3879598662E+03  2.7038705498E-02  2.4341073505E+00  4.3773984368E-04  4.3068979008E-04  1.4166595701E-01
  5.4849498328E+03  2.7340946707E-02  2.4092025347E+00  4.5811870222E-04  4.5048481942E-04  1.4512116406E-01
  5.5819397993E+03  2.7645918601E-02  2.3851472643E+00  4.7923806957E-04  4.7097908219E-04  1.4857052530E-01
  5.6789297659E+03  2.7953629827E-02  2.3618979105E+00  5.0094066522E-04  4.9201912447E-04  1.5201300646E-01
  5.7759197324E+03  2.8264085462E-02  2.3394136830E+00  5.2323217269E-04  5.1360923014E-04  1.5544760946E-01
  5.8729096990E+03  2.8577287041E-02  2.3176564025E+00  5.4611823226E-04  5.3575362121E-04  1.5887339698E-01
  5.9698996656E+03  2.8893232516E-02  2.2965902951E+00  5.6960444195E-04  5.5845645901E-04  1.6228948748E-01
  6.0668896321E+03  2.9211913451E-02  2.2761818692E+00  5.9383921195E-04  5.8185899247E-04  1.6569505286E-01
  6.1638795987E+03  2.9533310196E-02  2.2563998454E+00  6.1876120010E-04  6.0590064175E-04  1.6908931334E-01
  6.2608695652E+03  2.9857392754E-02  2.2372149680E+00  6.4431405525E-04  6.3052589515E-04  1.7247152400E-01
  6.3578595318E+03  3.0184128139E-02  2.2185996949E+00  6.7050355566E-04  6.5573893878E-04  1.7584098372E-01
  6.4548494983E+03  3.0513781324E-02  2.2005361772E+00  6.9733544160E-04  6.8154404934E-04  1.7919703650E-01
  6.5518394649E+03  3.0846403560E-02  2.1830017386E+00  7.2481541611E-04  7.0794536592E-04  1.8253906935E-01
  6.6488294314E+03  3.1181656803E-02  2.1659648681E+00  7.5294914586E-04  7.3494676471E-04  1.8586651038E-01
  6.7458193980E+03  3.1519500314E-02  2.1494036053E+00  7.8174226188E-04  7.6255220643E-04  1.8917882696E-01
  6.8428093645E+03  3.1859891011E-02  2.1332971715E+00  8.1120036030E-04  7.9076559458E-04  1.9247552386E-01
  6.9397993311E+03  3.2202783419E-02  2.1176258900E+00  8.4132900304E-04  8.1959077580E-04  1.9575614151E-01
  7.0367892977E+03  3.2548165674E-02  2.1023719742E+00  8.7223960508E-04  8.4913191550E-04  1.9902025435E-01
  7.1337792642E+03  3.2897073574E-02  2.0875433001E+00  9.0401623922E-04  8.7946749226E-04  2.0226746376E-01
  7.2307692308E+03  3.3248409720E-02  2.0730978206E+00  9.3649641540E-04  9.1044105763E-04  2.0549740754E-01
  7.3277591973E+03  3.3602110542E-02  2.0590195313E+00  9.6968591548E-04  9.4205649809E-04  2.0870975848E-01
  7.4247491639E+03  3.3958111313E-02  2.0452932202E+00  1.0035904901E-03  9.7431764155E-04  2.1190421668E-01
  7.5217391304E+03  3.4316994221E-02  2.0319187488E+00  1.0382158592E-03  1.0072288192E-03  2.1508050820E-01
  7.6187290970E+03  3.4678935155E-02  2.0188869994E+00  1.0735677128E-03  1.0407940391E-03  2.1823838374E-01
  7.7157190635E+03  3.5043063933E-02  2.0061668038E+00  1.1096517112E-03  1.0750163049E-03  2.2137761737E-01
  7.8127090301E+03  3.5409311537E-02  1.9937456242E+00  1.1464734858E-03  1.1098992262E-03  2.2449800533E-01
  7.9096989967E+03  3.5778644925E-02  1.9816330827E+00  1.1840386395E-03  1.1454474252E-03  2.2759936512E-01
  8.0066889632E+03  3.6150756171E-02  1.9698119969E+00  1.2223713753E-03  1.1816816857E-03  2.3068154113E-01
  8.1036789298E+03  3.6524860003E-02  1.9582563939E+00  1.2617175572E-03  1.2188289376E-03  2.3374440378E-01
  8.2006688963E+03  3.6901210537E-02  1.9469623581E+00  1.3018379140E-03  1.2566637989E-03  2.3678784098E-01
  8.2976588629E+03  3.7281109468E-02  1.9359466577E+00  1.3427382107E-03  1.2951915149E-03  2.3981175674E-01
  8.3946488294E+03  3.7662853128E-02  1.9251668866E+00  1.3844241864E-03  1.3344137420E-03  2.4281607029E-01
  8.4916387960E+03  3.8046435699E-02  1.9146152565E+00  1.4269015542E-03  1.3743339948E-03  2.4580071525E-01
  8.5886287625E+03  3.8433872527E-02  1.9043223202E+00  1.4701760018E-03  1.4149585029E-03  2.4876563881E-01
  8.6856187291E+03  3.8822999977E-02  1.8942394101E+00  1.5142531921E-03  1.4562879480E-03  2.5171079629E-01
  8.7826086957E+03  3.9214007237E-02  1.8843634001E+00  1.5591387632E-03  1.4983259824E-03  2.5463616050E-01
  8.8795986622E+03  3.9608716569E-02  1.8747207132E+00  1.6048383290E-03  1.5410787489E-03  2.5754173523E-01
  8.9765886288E+03  4.0004957890E-02  1.8652652822E+00  1.6513574796E-03  1.5845464400E-03  2.6042753459E-01
  9.0735785953E+03  4.0403568709E-02  1.8560061449E+00  1.6988744745E-03  1.6288924138E-03  2.6329358176E-01
  9.1705685619E+03  4.0805266192E-02  1.8469498852E+00  1.7472862220E-03  1.6740207703E-03  2.6613990845E-01
  9.2675585284E+03  4.1208328604E-02  1.8380608268E+00  7.1513992947E-04  7.0267218490E-04  2.6896655434E-01
  9.3645484950E+03  4.1614686094E-02  1.8293669177E+00  7.3432043593E-04  7.2130300065E-04  2.7177356661E-01
  9.4615384615E+03  4.2023051884E-02  1.8208408693E+00  7.5380933226E-04  7.4022473854E-04  2.7456099940E-01
  9.5585284281E+03  4.2433225405E-02  1.8124744597E+00  7.7360832988E-04  7.5943870909E-04  2.7732891341E-01
  9.6555183946E+03  4.2846827388E-02  1.8042899464E+00  7.9410138624E-04  7.7931496663E-04  2.8007737545E-01
  9.7525083612E+03  4.3261529620E-02  1.7962441672E+00  8.1544934901E-04  8.0000660549E-04  2.8280645803E-01
  9.8494983278E+03  4.3679653745E-02  1.7883707592E+00  8.3715117553E-04  8.2103120557E-04  2.8551623895E-01
  9.9464882943E+03  4.4099426926E-02  1.7806366571E+00  8.5920915491E-04  8.4239001015E-04  2.8820680098E-01
  1.0043478261E+04  4.4521523648E-02  1.7730486700E+00  8.8180349085E-04  8.6425601154E-04  2.9087823906E-01
  1.0140468227E+04  4.4946291573E-02  1.7656084527E+00  9.0498969732E-04  8.8668195042E-04  2.9353066473E-01
  1.0237458194E+04  4.5372418765E-02  1.7582915740E+00  9.2855592506E-04  9.0946328240E-04  2.9616419210E-01
  1.0334448161E+04  4.5802096859E-02  1.7511287780E+00  9.5250470935E-04  9.3260293337E-04  2.9877893791E-01
  1.0431438127E+04  4.6232506928E-02  1.7440728387E+00  7.1561060152E-04  7.0441822287E-04  3.0137502130E-01
  1.0528428094E+04  4.6666805171E-02  1.7371690496E+00  7.3301322491E-04  7.2137787722E-04  3.0395256360E-01
  1.0625418060E+04  4.7101936427E-02  1.7303674861E+00  7.5067343856E-04  7.3858208696E-04  3.0651168810E-01
  1.0722408027E+04  4.7540373955E-02  1.7237025758E+00  7.6859264778E-04  7.5603263792E-04  3.0905251988E-01
  1.0819397993E+04  4.7980135182E-02  1.7171415412E+00  7.8677225264E-04  7.7373020824E-04  3.1157518560E-01
  1.0916387960E+04  4.8422756208E-02  1.7107043939E+00  6.9818478440E-04  6.8798427994E-04  3.1407981334E-01
  1.1013377926E+04  4.8867054440E-02  1.7043709115E+00  7.1418312893E-04  7.0360523423E-04  3.1656653245E-01
  1.1110367893E+04  4.9313900684E-02  1.6981511281E+00  7.3040277710E-04  7.1943753295E-04  3.1903547336E-01
  1.1207357860E+04  4.9762641320E-02  1.6920330219E+00  7.4684526777E-04  7.3548240227E-04  3.2148677108E-01
  1.1304347826E+04  5.0213752090E-02  1.6860208627E+00  7.6351242885E-04  7.5174158820E-04  3.2392057053E-01
  1.1401337793E+04  5.0666839014E-02  1.6801066938E+00  7.8040418368E-04  7.6821479768E-04  3.2633701706E-01
  1.1498327759E+04  5.1122251283E-02  1.6742930260E+00  7.9752160603E-04  7.8490302100E-04  3.2873625587E-01
  1.1595317726E+04  5.1579586982E-02  1.6685720354E+00  8.1486576559E-04  8.0180706811E-04  3.3111843198E-01
  1.1692307692E+04  5.2039335457E-02  1.6629482859E+00  8.3243772808E-04  8.1892795802E-04  3.3348369012E-01
  1.1789297659E+04  5.2500821139E-02  1.6574103426E+00  8.5023855522E-04  8.3626641747E-04  3.3583217469E-01
  1.1886287625E+04  5.2964938328E-02  1.6519684553E+00  8.6826930484E-04  8.5382356526E-04  3.3816402967E-01
  1.1983277592E+04  5.3430474039E-02  1.6466040087E+00  8.8653103088E-04  8.7159996943E-04  3.4047939857E-01
  1.2080267559E+04  5.3898990312E-02  1.6413364055E+00  9.0502478347E-04  8.8959692924E-04  3.4277842437E-01
  1.2177257525E+04  5.4368475064E-02  1.6361364428E+00  9.2375160898E-04  9.0781476870E-04  3.4506124946E-01
  1.2274247492E+04  5.4841418710E-02  1.6310359880E+00  9.4271255001E-04  9.2625505822E-04  3.4732801084E-01
  1.2371237458E+04  5.5314750598E-02  1.6259919947E+00  9.6190864549E-04  9.4491778226E-04  3.4957885302E-01
  1.2468227425E+04  5.5792147837E-02  1.6210519622E+00  9.8134093069E-04  9.6380488339E-04  3.5181392837E-01
  1.2565217391E+04  5.6269918117E-02  1.6161650443E+00  1.0011687406E-03  9.8306874720E-04  3.5403338789E-01
  1.2662207358E+04  5.6751097858E-02  1.6113699167E+00  1.0213182631E-03  1.0026388316E-03  3.5623738120E-01
  1.2759197324E+04  5.7233373679E-02  1.6066344750E+00  1.0417147234E-03  1.0224421395E-03  3.5842605656E-01
  1.2856187291E+04  5.7718183818E-02  1.6019761991E+00  1.0623592330E-03  1.0424800488E-03  3.6059956081E-01
  1.2953177258E+04  5.8204982941E-02  1.5973863519E+00  1.0832529001E-03  1.0627533026E-03  3.6275803941E-01
  1.3050167224E+04  5.8693316424E-02  1.5928578705E+00  1.1043968293E-03  1.0832626550E-03  3.6490163644E-01
  1.3147157191E+04  5.9184654518E-02  1.5884080553E+00  1.1257921218E-03  1.1040095232E-03  3.6703049457E-01
  1.3244147157E+04  5.9676448981E-02  1.5840032417E+00  1.1474398755E-03  1.1249939116E-03  3.6914475505E-01
  1.3341137124E+04  6.0172295140E-02  1.5796876307E+00  1.1693411848E-03  1.1462180116E-03  3.7124455777E-01
  1.3438127090E+04  6.0668669822E-02  1.5754154690E+00  1.1914971409E-03  1.1676814362E-03  3.7333004120E-01
  1.3535117057E+04  6.1167809861E-02  1.5712137438E+00  1.2139088317E-03  1.1893859030E-03  3.7540134243E-01
  1.3632107023E+04  6.1668776131E-02  1.5670693663E+00  1.2365773418E-03  1.2113319467E-03  3.7745859713E-01
  1.3729096990E+04  6.2171102255E-02  1.5629756394E+00  1.2595941002E-03  1.2336069164E-03  3.7950193961E-01
  1.3826086957E+04  6.2676669686E-02  1.5589544308E+00  1.2830279162E-03  1.2562772662E-03  3.8153150280E-01
  1.3923076923E+04  6.3182771054E-02  1.5549715701E+00  1.3067291361E-03  1.2791981221E-03  3.8354741824E-01
  1.4020066890E+04  6.3692251008E-02  1.5510606847E+00  1.3306989141E-03  1.3023715989E-03  3.8554981611E-01
  1.4117056856E+04  6.4202987127E-02  1.5471948623E+00  1.3549384011E-03  1.3257977428E-03  3.8753882762E-01
  1.4214046823E+04  6.4715419547E-02  1.5433786411E+00  1.3794487450E-03  1.3494776604E-03  3.8951459399E-01
  1.4311036789E+04  6.5230796007E-02  1.5396257908E+00  1.4042310907E-03  1.3734128347E-03  3.9147724869E-01
  1.4408026756E+04  6.5746754142E-02  1.5359073221E+00  1.4292865802E-03  1.3976031223E-03  3.9342692233E-01
  1.4505016722E+04  6.6266094593E-02  1.5322555297E+00  1.4546163522E-03  1.4220507214E-03  3.9536374384E-01
  1.4602006689E+04  6.6786721698E-02  1.5286446279E+00  1.4802215426E-03  1.4467555780E-03  3.9728784050E-01
  1.4698996656E+04  6.7308779133E-02  1.5250756717E+00  1.5061032845E-03  1.4717186532E-03  3.9919933793E-01
  1.4795986622E+04  6.7834077006E-02  1.5215687384E+00  1.5322627079E-03  1.4969417388E-03  4.0109836019E-01
  1.4892976589E+04  6.8360002118E-02  1.5180927041E+00  1.5587009400E-03  1.5224244453E-03  4.0298502972E-01
  1.4989966555E+04  6.8888714325E-02  1.5146718072E+00  1.5854191052E-03  1.5481687491E-03  4.0485945521E-01
  1.5086956522E+04  6.9419334230E-02  1.5112949486E+00  1.6125876540E-03  1.5743364953E-03  4.0672174101E-01
  1.5183946488E+04  6.9950601697E-02  1.5079471858E+00  1.6400628332E-03  1.6007896560E-03  4.0857202619E-01
  1.5280936455E+04  7.0485841658E-02  1.5046653969E+00  1.6678265414E-03  1.6275125623E-03  4.1041044860E-01
  1.5377926421E+04  7.1021826444E-02  1.5014122761E+00  1.6958799459E-03  1.6545044048E-03  4.1223714380E-01
  1.5474916388E+04  7.1559417639E-02  1.4981970026E+00  1.7242242116E-03  1.6817665572E-03  4.1405224505E-01
  1.5571906355E+04  7.2100117667E-02  1.4950354352E+00  1.7528605003E-03  1.7093007930E-03  4.1585588342E-01
  1.5668896321E+04  7.2641507838E-02  1.4919001085E+00  1.7817899714E-03  1.7371066430E-03  4.1764818781E-01
  1.5765886288E+04  7.3185367337E-02  1.4888100692E+00  1.8110137815E-03  1.7651860409E-03  4.1942929201E-01
  1.5862876254E+04  7.3731491558E-02  1.4857622252E+00  1.8405330848E-03  1.7935397851E-03  4.2119936508E-01
  1.5959866221E+04  7.4278324825E-02  1.4827391424E+00  1.8703490325E-03  1.8221678266E-03  4.2295852568E-01
  1.6056856187E+04  7.4828320521E-02  1.4797667603E+00  1.9004627735E-03  1.8510725677E-03  4.2470688063E-01
  1.6153846154E+04  7.5379904360E-02  1.4768273502E+00  1.9308754541E-03  1.8802539356E-03  4.2644453529E-01
  1.6250836120E+04  7.5932215713E-02  1.4739113225E+00  1.9615892908E-03  1.9097132676E-03  4.2817159355E-01
  1.6347826087E+04  7.6488213136E-02  1.4710494951E+00  1.9926054385E-03  1.9394533792E-03  4.2988815792E-01
  1.6444816054E+04  7.7045289354E-02  1.4682135696E+00  2.0239239935E-03  1.9694724705E-03  4.3159432952E-01
  1.6541806020E+04  7.7603141568E-02  1.4654000576E+00  2.0555460922E-03  1.9997711864E-03  4.3329020808E-01
  1.6638795987E+04  7.8164973728E-02  1.4626418022E+00  2.0874728686E-03  2.0303525902E-03  4.3497589202E-01
  1.6735785953E+04  7.8727572495E-02  1.4599047249E+00  2.1197054542E-03  2.0612153552E-03  4.3665147845E-01
  1.6832775920E+04  7.9291158752E-02  1.4571908428E+00  2.1522449782E-03  2.0923604698E-03  4.3831706318E-01
  1.6929765886E+04  7.9858523872E-02  1.4545282311E+00  2.1850925672E-03  2.1237908017E-03  4.3997274075E-01
  1.7026755853E+04  8.0426672831E-02  1.4518856534E+00  2.1012877960E-03  2.0449016082E-03  4.4161860446E-01
  1.7123745819E+04  8.0995854936E-02  1.4492653973E+00  2.1328605572E-03  2.0751614338E-03  4.4325474641E-01
  1.7220735786E+04  8.1568778581E-02  1.4466942727E+00  2.1647251377E-03  2.1056921147E-03  4.4488125746E-01
  1.7317725753E+04  8.2142502912E-02  1.4441421115E+00  2.1968831904E-03  2.1364930401E-03  4.4649822538E-01
  1.7414715719E+04  8.2717141430E-02  1.4416098304E+00  2.2294256061E-03  2.1676499984E-03  4.4810573903E-01
  1.7511705686E+04  8.3295647767E-02  1.4391262912E+00  2.2624198884E-03  2.1992285730E-03  4.4970388926E-01
  1.7608695652E+04  8.3874971275E-02  1.4366607125E+00  2.2959424886E-03  2.2312984204E-03  4.5129276562E-01
  1.7705685619E+04  8.4455108596E-02  1.4342128665E+00  2.3297734168E-03  2.2636513354E-03  4.5287245642E-01
  1.7802675585E+04  8.5039047312E-02  1.4318114993E+00  2.3639137948E-03  2.2962903945E-03  4.5444304875E-01
  1.7899665552E+04  8.5624002033E-02  1.4294289358E+00  2.3983647423E-03  2.3292143878E-03  4.5600462848E-01
  1.7996655518E+04  8.6209786803E-02  1.4270631801E+00  2.4331273770E-03  2.3624239943E-03  4.5755728030E-01
  1.8093645485E+04  8.6798911577E-02  1.4247379393E+00  2.4682028144E-03  2.3959220077E-03  4.5910108774E-01
  1.8190635452E+04  8.7389533823E-02  1.4224350538E+00  2.5035921682E-03  2.4297078507E-03  4.6063613322E-01
  1.8287625418E+04  8.7981002144E-02  1.4201481071E+00  2.5392965498E-03  2.4637818242E-03  4.6216249801E-01
  1.8384615385E+04  8.8575180565E-02  1.4178943686E+00  2.5753170686E-03  2.4981462686E-03  4.6368026230E-01
  1.8481605351E+04  8.9171505021E-02  1.4156680144E+00  2.6116548323E-03  2.5328015787E-03  4.6518950523E-01
  1.8578595318E+04  8.9768691379E-02  1.4134567818E+00  2.6483109463E-03  2.5677475084E-03  4.6669030485E-01
  1.8675585284E+04  9.0367788404E-02  1.4112701636E+00  2.6852865141E-03  2.6029857544E-03  4.6818273819E-01
  1.8772575251E+04  9.0969848089E-02  1.4091173703E+00  2.7225826373E-03  2.6385180636E-03  4.6966688129E-01
  1.8869565217E+04  9.1572785308E-02  1.4069789297E+00  2.7602004155E-03  2.6743434539E-03  4.7114280917E-01
  1.8966555184E+04  9.2176663415E-02  1.4048552752E+00  2.7981409464E-03  2.7104627660E-03  4.7261059586E-01
  1.9063545151E+04  9.2784489710E-02  1.4027732366E+00  2.8364053257E-03  2.7468795217E-03  4.7407031448E-01
  1.9160535117E+04  9.3393208981E-02  1.4007048263E+00  2.8749946473E-03  2.7835917927E-03  4.7552203715E-01
  1.9257525084E+04  9.4002818009E-02  1.3986498867E+00  2.9139100031E-03  2.8206003501E-03  4.7696583512E-01
  1.9354515050E+04  9.4615351007E-02  1.3966262514E+00  2.9531524833E-03  2.8579078957E-03  4.7840177867E-01
  1.9451505017E+04  9.5229881919E-02  1.3946252593E+00  2.9927231759E-03  2.8955143842E-03  4.7982993725E-01
  1.9548494983E+04  9.5845317871E-02  1.3926370654E+00  3.0326231675E-03  2.9334195570E-03  4.8125037939E-01
  1.9645484950E+04  9.6462347759E-02  1.3906675403E+00  3.0728535424E-03  2.9716248562E-03  4.8266317278E-01
  1.9742474916E+04  9.7082718325E-02  1.3887314934E+00  3.1134153833E-03  3.0101328169E-03  4.8406838424E-01
  1.9839464883E+04  9.7704009036E-02  1.3868076101E+00  3.1543097711E-03  3.0489418332E-03  4.8546607979E-01
  1.9936454849E+04  9.8326216746E-02  1.3848957551E+00  3.1955377849E-03  3.0880526537E-03  4.8685632489E-01
  2.0033444816E+04  9.8951627017E-02  1.3830152509E+00  3.2371798839E-03  3.1275425055E-03  4.8823918662E-01
  2.0130434783E+04  9.9578798386E-02  1.3811533871E+00  3.2793118371E-03  3.1674802833E-03  4.8961473080E-01
  2.0227424749E+04  1.0020690171E-01  1.3793029609E+00  3.3217855063E-03  3.2077265264E-03  4.9098302222E-01
  2.0324414716E+04  1.0083651105E-01  1.3774687058E+00  3.3646020026E-03  3.2482826260E-03  4.9234412480E-01
  2.0421404682E+04  1.0146958528E-01  1.3756667796E+00  3.4077624356E-03  3.2891515231E-03  4.9369810162E-01
  2.0518394649E+04  1.0210360622E-01  1.3738757318E+00  3.4512679130E-03  3.3303312850E-03  4.9504501492E-01
  2.0615384615E+04  1.0273857081E-01  1.3720954456E+00  3.4951195408E-03  3.3718226676E-03  4.9638492611E-01
  2.0712374582E+04  1.0337626262E-01  1.3703406134E+00  3.5393184235E-03  3.4136284634E-03  4.9771789581E-01
  2.0809364548E+04  1.0401622088E-01  1.3686070276E+00  3.5838656637E-03  3.4557489691E-03  4.9904398386E-01
  2.0906354515E+04  1.0465713738E-01  1.3668836810E+00  3.6287623623E-03  3.4981834600E-03  5.0036324931E-01
  2.1003344482E+04  1.0529900910E-01  1.3651704659E+00  3.6740096187E-03  3.5409326793E-03  5.0167575048E-01
  2.1100334448E+04  1.0594463206E-01  1.3634901291E+00  3.7196085304E-03  3.5840007279E-03  5.0298154491E-01
  2.1197324415E+04  1.0659151843E-01  1.3618219273E+00  3.7655959663E-03  3.6274186411E-03  5.0428068943E-01
  2.1294314381E+04  1.0723937445E-01  1.3601633681E+00  3.8119720471E-03  3.6711858562E-03  5.0557324016E-01
  2.1391304348E+04  1.0788872234E-01  1.3585186095E+00  3.8587044952E-03  3.7152727748E-03  5.0685925250E-01
  2.1488294314E+04  1.0854159502E-01  1.3569038451E+00  3.9057944130E-03  3.7596827250E-03  5.0813878116E-01
  2.1585284281E+04  1.0919545159E-01  1.3552982592E+00  3.9532429017E-03  3.8044133154E-03  5.0941188018E-01
  2.1682274247E+04  1.0985028909E-01  1.3537017587E+00  4.0010510606E-03  3.8494652765E-03  5.1067860293E-01
  2.1779264214E+04  1.1050724471E-01  1.3521233643E+00  4.0492199876E-03  3.8948408269E-03  5.1193900212E-01
  2.1876254181E+04  1.1116711657E-01  1.3505691494E+00  4.0977507788E-03  3.9405418037E-03  5.1319312981E-01
  2.1973244147E+04  1.1182798346E-01  1.3490235846E+00  4.1466445289E-03  3.9865664479E-03  5.1444103743E-01
  2.2070234114E+04  1.1248984246E-01  1.3474865840E+00  4.1959023311E-03  4.0329154776E-03  5.1568277581E-01
  2.2167224080E+04  1.1315424220E-01  1.3459702966E+00  4.2455252769E-03  4.0795917366E-03  5.1691839514E-01
  2.2264214047E+04  1.1382115156E-01  1.3444741622E+00  4.2955144563E-03  4.1265959706E-03  5.1814794505E-01
  2.2361204013E+04  1.1448906697E-01  1.3429861836E+00  4.3458729027E-03  4.1739286478E-03  5.1937147561E-01
  2.2458193980E+04  1.1515798557E-01  1.3415062811E+00  4.3969756885E-03  4.2219352743E-03  5.2058903653E-01
  2.2555183946E+04  1.1582966171E-01  1.3400480525E+00  4.4484551424E-03  4.2702787430E-03  5.2180067678E-01
  2.2652173913E+04  1.1650364499E-01  1.3386076800E+00  4.5003124020E-03  4.3189592275E-03  5.2300644472E-01
  2.2749163880E+04  1.1717864524E-01  1.3371749999E+00  4.5525486031E-03  4.3679756330E-03  5.2420638812E-01
  2.2846153846E+04  1.1785465964E-01  1.3357499385E+00  4.6051648803E-03  4.4173286917E-03  5.2540055412E-01
  2.2943143813E+04  1.1853344066E-01  1.3343459141E+00  4.6581623665E-03  4.4670217759E-03  5.2658898932E-01
  2.3040133779E+04  1.1921453242E-01  1.3329591233E+00  4.7115421934E-03  4.5170550100E-03  5.2777173971E-01
  2.3137123746E+04  1.1989665194E-01  1.3315795903E+00  4.7653054910E-03  4.5674272103E-03  5.2894885075E-01
  2.3234113712E+04  1.2057979648E-01  1.3302072469E+00  4.8194533881E-03  4.6181390969E-03  5.3012036732E-01
  2.3331103679E+04  1.2126550731E-01  1.3288537510E+00  4.8739870118E-03  4.6691938198E-03  5.3128633379E-01
  2.3428093645E+04  1.2195374025E-01  1.3275184899E+00  4.9289074881E-03  4.7205921064E-03  5.3244679396E-01
  2.3525083612E+04  1.2264301167E-01  1.3261900787E+00  4.9842159413E-03  4.7723323592E-03  5.3360179115E-01
  2.3622073579E+04  1.2333331883E-01  1.3248684541E+00  5.0399134946E-03  4.8244152860E-03  5.3475136811E-01
  2.3719063545E+04  1.2402578115E-01  1.3235619766E+00  5.0960012695E-03  4.8768434404E-03  5.3589556714E-01
  2.3816053512E+04  1.2472118618E-01  1.3222763122E+00  5.1524803863E-03  4.9296188997E-03  5.3703443001E-01
  2.3913043478E+04  1.2541764027E-01  1.3209971143E+00  5.2093519638E-03  4.9827392803E-03  5.3816799801E-01
  2.4010033445E+04  1.2611514074E-01  1.3197243242E+00  5.2666171195E-03  5.0362052780E-03  5.3929631195E-01
  2.4107023411E+04  1.2681417325E-01  1.3184615090E+00  5.3242769696E-03  5.0900184259E-03  5.4041941215E-01
  2.4204013378E+04  1.2751677948E-01  1.3172236184E+00  5.3823326287E-03  5.1441829966E-03  5.4153733851E-01
  2.4301003344E+04  1.2822044525E-01  1.3159918336E+00  5.4407852104E-03  5.1986953993E-03  5.4265013042E-01
  2.4397993311E+04  1.2892516793E-01  1.3147661003E+00  5.4996358267E-03  5.2535563180E-03  5.4375782668E-01
  2.4494983278E+04  1.2963094489E-01  1.3135463650E+00  5.5588855882E-03  5.3087664334E-03  5.4486046493E-01
  2.4591973244E+04  1.3034042139E-01  1.3123518964E+00  5.6185356044E-03  5.3643312305E-03  5.4595808389E-01
  2.4688963211E+04  1.3105132608E-01  1.3111658253E+00  5.6785869834E-03  5.4202473701E-03  5.4705072217E-01
  2.4785953177E+04  1.3176329810E-01  1.3099854701E+00  5.7390408319E-03  5.4765148810E-03  5.4813841788E-01
  2.4882943144E+04  1.3247633485E-01  1.3088107811E+00  5.7998982553E-03  5.5331344319E-03  5.4922120873E-01
  2.4979933110E+04  1.3319200573E-01  1.3076530633E+00  5.8611603578E-03  5.5901096651E-03  5.5029913194E-01
  2.5076923077E+04  1.3391017530E-01  1.3065111022E+00  5.9231990068E-03  5.6477781663E-03  5.5137222432E-01
  2.5173913043E+04  1.3462942251E-01  1.3053745409E+00  5.9857484432E-03  5.7058949089E-03  5.5244052225E-01
  2.5270903010E+04  1.3534974481E-01  1.3042433331E+00  6.0487139256E-03  5.7643733553E-03  5.5350406169E-01
  2.5367892977E+04  1.3607142050E-01  1.3031194412E+00  6.1120966073E-03  5.8232147507E-03  5.5456287817E-01
  2.5464882943E+04  1.3679688237E-01  1.3020200889E+00  6.1758976405E-03  5.8824246554E-03  5.5561700685E-01
  2.5561872910E+04  1.3752343209E-01  1.3009258381E+00  6.2401181759E-03  5.9419984867E-03  5.5666648245E-01
  2.5658862876E+04  1.3825106717E-01  1.2998366457E+00  6.3047593634E-03  6.0019369271E-03  5.5771133931E-01
  2.5755852843E+04  1.3897978511E-01  1.2987524695E+00  6.3698223513E-03  6.0622406556E-03  5.5875161140E-01
  2.5852842809E+04  1.3971133666E-01  1.2976856050E+00  6.4353082869E-03  6.1229139896E-03  5.5978733229E-01
  2.5949832776E+04  1.4044521594E-01  1.2966322664E+00  6.5012183161E-03  6.1839566531E-03  5.6081853519E-01
  2.6046822742E+04  1.4118019076E-01  1.2955837076E+00  6.5675535838E-03  6.2453667873E-03  5.6184525292E-01
  2.6143812709E+04  1.4191625867E-01  1.2945398893E+00  6.6343152335E-03  6.3071450595E-03  5.6286751795E-01
  2.6240802676E+04  1.4265342351E-01  1.2935008165E+00  6.7015044076E-03  6.3692921473E-03  5.6388536241E-01
  2.6337792642E+04  1.4339465787E-01  1.2924870651E+00  6.7691222474E-03  6.4318152075E-03  5.6489881805E-01
  2.6434782609E+04  1.4413699788E-01  1.2914778303E+00  6.8371698928E-03  6.4947085567E-03  5.6590791628E-01
  2.6531772575E+04  1.4488044112E-01  1.2904730753E+00  6.9056484826E-03  6.5579728509E-03  5.6691268820E-01
  2.6628762542E+04  1.4562498518E-01  1.2894727641E+00  6.9745591545E-03  6.6216087424E-03  5.6791316453E-01
  2.6725752508E+04  1.4637163483E-01  1.2884837775E+00  7.0439030451E-03  6.6856191677E-03  5.6890937569E-01
  2.6822742475E+04  1.4712136398E-01  1.2875126243E+00  7.1136812895E-03  6.7500070756E-03  5.6990135176E-01
  2.6919732441E+04  1.4787220642E-01  1.2865457045E+00  7.1838950221E-03  6.8147686926E-03  5.7088912252E-01
  2.7016722408E+04  1.4862415978E-01  1.2855829844E+00  7.2545453757E-03  6.8799046597E-03  5.7187271742E-01
  2.7113712375E+04  1.4937722171E-01  1.2846244309E+00  7.3256334823E-03  6.9454156143E-03  5.7285216559E-01
  2.7210702341E+04  1.5013315795E-01  1.2836819795E+00  7.3971604726E-03  7.0113064040E-03  5.7382749588E-01
  2.7307692308E+04  1.5089142198E-01  1.2827517289E+00  7.4691274760E-03  7.0775764682E-03  5.7479873682E-01
  2.7404682274E+04  1.5165080694E-01  1.2818254470E+00  7.5415491043E-03  7.1442356925E-03  5.7576591664E-01
  2.7501672241E+04  1.5241131052E-01  1.2809031029E+00  7.6144705542E-03  7.2113242101E-03  5.7672906330E-01
  2.7598662207E+04  1.5317293042E-01  1.2799846661E+00  7.6878365141E-03  7.2787919663E-03  5.7768820445E-01
  2.7695652174E+04  1.5393794892E-01  1.2790853578E+00  7.7616481158E-03  7.3466452917E-03  5.7864336747E-01
  2.7792642140E+04  1.5470478632E-01  1.2781944185E+00  7.8359064904E-03  7.4148809868E-03  5.7959457946E-01
  2.7889632107E+04  1.5547275230E-01  1.2773072002E+00  7.9106127677E-03  7.4834979681E-03  5.8054186723E-01
  2.7986622074E+04  1.5624184459E-01  1.2764236747E+00  7.9857680764E-03  7.5524968520E-03  5.8148525733E-01
  2.8083612040E+04  1.5701206094E-01  1.2755438138E+00  8.0613735442E-03  7.6218782513E-03  5.8242477605E-01
  2.8180602007E+04  1.5778595162E-01  1.2746844030E+00  8.1374302975E-03  7.6916494534E-03  5.8336044928E-01
  2.8277591973E+04  1.5856139929E-01  1.2738312799E+00  8.2139394620E-03  7.7618056603E-03  5.8429230269E-01
  2.8374581940E+04  1.5933798319E-01  1.2729816461E+00  8.2909021619E-03  7.8323463921E-03  5.8522036229E-01
  2.8471571906E+04  1.6011570110E-01  1.2721354754E+00  8.3683195206E-03  7.9032722504E-03  5.8614465386E-01
  2.8568561873E+04  1.6089455079E-01  1.2712927418E+00  8.4461926603E-03  7.9745838339E-03  5.8706520295E-01
  2.8665551839E+04  1.6167709810E-01  1.2704701185E+00  8.5245227022E-03  8.0462887681E-03  5.8798203480E-01
  2.8762541806E+04  1.6246119137E-01  1.2696534058E+00  8.6033107665E-03  8.1183818932E-03  5.8889517442E-01
  2.8859531773E+04  1.6324642850E-01  1.2688399650E+00  8.6825579721E-03  8.1908627149E-03  5.8980464654E-01
  2.8956521739E+04  1.6403280732E-01  1.2680297719E+00  8.7622654370E-03  8.2637318206E-03  5.9071047564E-01
  2.9053511706E+04  1.6482032564E-01  1.2672228027E+00  8.8424342783E-03  8.3369897946E-03  5.9161268595E-01
  2.9150501672E+04  1.6561130892E-01  1.2664339821E+00  8.9230656119E-03  8.4106438805E-03  5.9251130144E-01
  2.9247491639E+04  1.6640408153E-01  1.2656523564E+00  9.0041605526E-03  8.4846899959E-03  5.9340634585E-01
  2.9344481605E+04  1.6719800564E-01  1.2648737983E+00  9.0857202143E-03  8.5591269133E-03  5.9429784267E-01
  2.9441471572E+04  1.6799307908E-01  1.2640982859E+00  9.1677457098E-03  8.6339552062E-03  5.9518581515E-01
  2.9538461538E+04  1.6878929974E-01  1.2633257973E+00  9.2502381509E-03  8.7091754447E-03  5.9607028631E-01
  2.9635451505E+04  1.6958849352E-01  1.2625679109E+00  9.3331986483E-03  8.7847936624E-03  5.9695127893E-01
  2.9732441472E+04  1.7038997766E-01  1.2618201247E+00  9.4166283119E-03  8.8608085079E-03  5.9782881559E-01
  2.9829431438E+04  1.7119262089E-01  1.2610752147E+00  9.5005282503E-03  8.9372171955E-03  5.9870291860E-01
  2.9926421405E+04  1.7199642111E-01  1.2603331604E+00  9.5848995714E-03  9.0140202844E-03  5.9957361010E-01
  3.0023411371E+04  1.7280137623E-01  1.2595939417E+00  9.6698720480E-03  9.0913320618E-03  6.0044091197E-01
  3.0120401338E+04  1.7360855097E-01  1.2588642172E+00  9.7557272811E-03  9.1694040082E-03  6.0130484589E-01
  3.0217391304E+04  1.7441877828E-01  1.2581490631E+00  9.8420649509E-03  9.2478843407E-03  6.0216543333E-01
  3.0314381271E+04  1.7523017228E-01  1.2574366052E+00  9.9288862058E-03  9.3267678026E-03  6.0302269556E-01
  3.0411371237E+04  1.7604273089E-01  1.2567268246E+00  1.0016192193E-02  9.4060549657E-03  6.0387665363E-01
  3.0508361204E+04  1.7685645208E-01  1.2560197029E+00  1.0103984059E-02  9.4857463987E-03  6.0472732839E-01
  3.0605351171E+04  1.7767137408E-01  1.2553154693E+00  1.0192262949E-02  9.5658427978E-03  6.0557474049E-01
  3.0702341137E+04  1.7849037727E-01  1.2546317326E+00  1.0281030008E-02  9.6463541895E-03  6.0641891039E-01
  3.0799331104E+04  1.7931055474E-01  1.2539505231E+00  1.0370286379E-02  9.7272717540E-03  6.0725985833E-01
  3.0896321070E+04  1.8013190444E-01  1.2532718235E+00  1.0460033205E-02  9.8085960491E-03  6.0809760440E-01
  3.0993311037E+04  1.8095442439E-01  1.2525956169E+00  1.0550271627E-02  9.8903276292E-03  6.0893216847E-01
  3.1090301003E+04  1.8177811256E-01  1.2519218861E+00  1.0641002786E-02  9.9724670453E-03  6.0976357022E-01
  3.1187290970E+04  1.8260466682E-01  1.2512608235E+00  1.0732227821E-02  1.0055020658E-02  6.1059182916E-01
