#[MATERIAL DEFINITION FOR MC-GPU: interaction mean free path and sampling data from PENELOPE 2006]
#[MATERIAL NAME]
# Marrow_Bone13_25                                              
#[NOMINAL DENSITY (g/cm^3)]
#   1.81610000
#[NUMBER OF DATA VALUES]
#   1495
#[MEAN FREE PATHS (cm) (ie, average distance between interactions)]
#[Energy (eV)     | Rayleigh        | Compton         | Photoelectric   | TOTAL (+pair prod) (cm) | Rayleigh: max cumul prob F^2]
  5.0000000000E+03  6.5780442974E-01  5.3880317875E+00  3.0701709017E-03  3.0541758362E-03  2.5617891083E-01
  5.0969899666E+03  6.6981657039E-01  5.3330924369E+00  3.2337296568E-03  3.2162521068E-03  2.6107073091E-01
  5.1939799331E+03  6.8190805559E-01  5.2804570573E+00  3.4026440852E-03  3.3835800770E-03  2.6591966835E-01
  5.2909698997E+03  6.9407773773E-01  5.2299893733E+00  3.5769834025E-03  3.5562238939E-03  2.7072693171E-01
  5.3879598662E+03  7.0632442763E-01  5.1815630450E+00  3.7568163815E-03  3.7342471115E-03  2.7549365031E-01
  5.4849498328E+03  7.1864689956E-01  5.1350607870E+00  3.9422539838E-03  3.9177547932E-03  2.8022087976E-01
  5.5819397993E+03  7.3104389599E-01  5.0903735782E+00  4.1338352749E-03  4.1072743913E-03  2.8490968250E-01
  5.6789297659E+03  7.4351413222E-01  5.0473999551E+00  4.3311534058E-03  4.3023989982E-03  2.8956111175E-01
  5.7759197324E+03  7.5605630083E-01  5.0060453744E+00  4.5342764642E-03  4.5031907864E-03  2.9417610898E-01
  5.8729096990E+03  7.6866907602E-01  4.9662216412E+00  4.7432721404E-03  4.7097113660E-03  2.9875557431E-01
  5.9698996656E+03  7.8135111974E-01  4.9278463891E+00  4.9582077362E-03  4.9220217912E-03  3.0330041437E-01
  6.0668896321E+03  7.9410118668E-01  4.8908424823E+00  5.1796050611E-03  5.1406306384E-03  3.0781147848E-01
  6.1638795987E+03  8.0691830477E-01  4.8551373819E+00  5.4073176491E-03  5.3653875369E-03  3.1228952361E-01
  6.2608695652E+03  8.1980175439E-01  4.8206628342E+00  5.6421115274E-03  5.5970403009E-03  3.1673530614E-01
  6.3578595318E+03  8.3275080933E-01  4.7873548752E+00  5.8858790288E-03  5.8374430826E-03  3.2114960260E-01
  6.4548494983E+03  8.4576915609E-01  4.7551809554E+00  6.1362206712E-03  6.0842271534E-03  3.2553305124E-01
  6.5518394649E+03  8.5885721693E-01  4.7240900993E+00  6.3944105566E-03  6.3386379616E-03  3.2988620863E-01
  6.6488294314E+03  8.7200970277E-01  4.6940007981E+00  6.6598572480E-03  6.6000857633E-03  3.3420964151E-01
  6.7458193980E+03  8.8522576544E-01  4.6648630038E+00  6.9322145688E-03  6.8682229101E-03  3.3850392555E-01
  6.8428093645E+03  8.9850453346E-01  4.6366296548E+00  7.2115583126E-03  7.1431163716E-03  3.4276964415E-01
  6.9397993311E+03  9.1184511456E-01  4.6092564672E+00  7.4979639854E-03  7.4248325993E-03  3.4700735398E-01
  7.0367892977E+03  9.2524711336E-01  4.5827045086E+00  7.7920252952E-03  7.7139457175E-03  3.5121745856E-01
  7.1337792642E+03  9.3872531307E-01  4.5570152901E+00  8.0942040783E-03  8.0109006819E-03  3.5540033102E-01
  7.2307692308E+03  9.5226421930E-01  4.5320692159E+00  8.4037537247E-03  8.3149557400E-03  3.5955635494E-01
  7.3277591973E+03  9.6586312274E-01  4.5078307266E+00  8.7207505563E-03  8.6261770371E-03  3.6368592293E-01
  7.4247491639E+03  9.7952126874E-01  4.4842663199E+00  9.0452706327E-03  8.9446302001E-03  3.6778943517E-01
  7.5217391304E+03  9.9324738530E-01  4.4613880489E+00  9.3773897551E-03  9.2703813561E-03  3.7186724154E-01
  7.6187290970E+03  1.0070443507E+00  4.4391783105E+00  9.7171834709E-03  9.6034956475E-03  3.7591959585E-01
  7.7157190635E+03  1.0208995573E+00  4.4175531902E+00  1.0064727077E-02  9.9440359773E-03  3.7994675294E-01
  7.8127090301E+03  1.0348120940E+00  4.3964859699E+00  1.0420095626E-02  1.0292065930E-02  3.8394897693E-01
  7.9096989967E+03  1.0487965127E+00  4.3760145037E+00  1.0783363925E-02  1.0647650541E-02  3.8792654032E-01
  8.0066889632E+03  1.0628484799E+00  4.3560956512E+00  1.1155062803E-02  1.1011296735E-02  3.9187970336E-01
  8.1036789298E+03  1.0769564945E+00  4.3366623000E+00  1.1541172073E-02  1.1388815089E-02  3.9580864819E-01
  8.2006688963E+03  1.0911245574E+00  4.3177117065E+00  1.1935788575E-02  1.1774439228E-02  3.9971354550E-01
  8.2976588629E+03  1.1053733241E+00  4.2992986162E+00  1.2338995072E-02  1.2168241282E-02  4.0359457506E-01
  8.3946488294E+03  1.1196770809E+00  4.2813089077E+00  1.2750874125E-02  1.2570286153E-02  4.0745192487E-01
  8.4916387960E+03  1.1340358028E+00  4.2637281850E+00  1.3171508106E-02  1.2980641793E-02  4.1128577398E-01
  8.5886287625E+03  1.1484820256E+00  4.2466476625E+00  1.3600979195E-02  1.3399381123E-02  4.1509624491E-01
  8.6856187291E+03  1.1629818671E+00  4.2299370108E+00  1.4039369383E-02  1.3826565784E-02  4.1888345462E-01
  8.7826086957E+03  1.1775383813E+00  4.2135941167E+00  1.4486760476E-02  1.4262262749E-02  4.2264752850E-01
  8.8795986622E+03  1.1921819526E+00  4.1976958769E+00  1.4943234097E-02  1.4706543707E-02  4.2638860112E-01
  8.9765886288E+03  1.2068773881E+00  4.1821213072E+00  1.5408871689E-02  1.5159467871E-02  4.3010682101E-01
  9.0735785953E+03  1.2216386857E+00  4.1669001892E+00  1.5886246422E-02  1.5623513113E-02  4.3380225774E-01
  9.1705685619E+03  1.2364787969E+00  4.1520535479E+00  1.6373885331E-02  1.6097239566E-02  4.3747496496E-01
  9.2675585284E+03  1.2513687327E+00  4.1374907099E+00  1.6871099468E-02  1.6579959798E-02  4.4112500516E-01
  9.3645484950E+03  1.2663422732E+00  4.1232893988E+00  1.7377972975E-02  1.7071747539E-02  4.4475244910E-01
  9.4615384615E+03  1.2813778516E+00  4.1093807919E+00  1.7894589836E-02  1.7572664138E-02  4.4835737521E-01
  9.5585284281E+03  1.2964719029E+00  4.0957476949E+00  1.8421033876E-02  1.8082774125E-02  4.5193986915E-01
  9.6555183946E+03  1.3116544452E+00  4.0824499171E+00  1.8957388764E-02  1.8602149718E-02  4.5550002324E-01
  9.7525083612E+03  1.3268835343E+00  4.0693799953E+00  1.9503738015E-02  1.9130845118E-02  4.5903793050E-01
  9.8494983278E+03  1.3422023009E+00  4.0566263198E+00  2.0060164989E-02  1.9668935206E-02  4.6255362895E-01
  9.9464882943E+03  1.3575785636E+00  4.0441074276E+00  2.0626752898E-02  2.0216475133E-02  4.6604713662E-01
  1.0043478261E+04  1.3730250548E+00  4.0318435357E+00  2.1206202458E-02  2.0776043709E-02  4.6951848082E-01
  1.0140468227E+04  1.3885494479E+00  4.0198405912E+00  2.1799395704E-02  2.1348465891E-02  4.7296769643E-01
  1.0237458194E+04  1.4041263768E+00  4.0080410276E+00  2.2403272198E-02  2.1930775998E-02  4.7639482555E-01
  1.0334448161E+04  1.4197999025E+00  3.9965226579E+00  2.3017919746E-02  2.2523052824E-02  4.7979991702E-01
  1.0431438127E+04  1.4355142028E+00  3.9851719801E+00  2.3643426030E-02  2.3125344251E-02  4.8318302604E-01
  1.0528428094E+04  1.4513336847E+00  3.9741018775E+00  2.4279878605E-02  2.3737735260E-02  4.8654421088E-01
  1.0625418060E+04  1.4671965582E+00  3.9631926300E+00  2.4927364903E-02  2.4360269745E-02  4.8988349751E-01
  1.0722408027E+04  1.4831543897E+00  3.9525299983E+00  2.5585972233E-02  2.4993028472E-02  4.9320089686E-01
  1.0819397993E+04  1.4991663983E+00  3.9420363256E+00  2.6255787783E-02  2.5636060263E-02  4.9649642737E-01
  1.0916387960E+04  1.5152654366E+00  3.9317619259E+00  2.6936898621E-02  2.6289439220E-02  4.9977011435E-01
  1.1013377926E+04  1.5314269569E+00  3.9216596527E+00  2.7629391694E-02  2.6953218176E-02  5.0302198963E-01
  1.1110367893E+04  1.5476700637E+00  3.9117554685E+00  2.8333353833E-02  2.7627465671E-02  5.0625209122E-01
  1.1207357860E+04  1.5639812827E+00  3.9020219679E+00  2.9050669204E-02  2.8313944650E-02  5.0946046300E-01
  1.1304347826E+04  1.5803713237E+00  3.8924711073E+00  2.9784445276E-02  2.9015581844E-02  5.1264714211E-01
  1.1401337793E+04  1.5968322339E+00  3.8830851815E+00  3.0530223962E-02  2.9728111765E-02  5.1581214214E-01
  1.1498327759E+04  1.6133720787E+00  3.8738717884E+00  3.1288096423E-02  3.0451600653E-02  5.1895547994E-01
  1.1595317726E+04  1.6299824734E+00  3.8648135603E+00  3.2058153726E-02  3.1186106982E-02  5.2207717875E-01
  1.1692307692E+04  1.6466749950E+00  3.8559227342E+00  3.2840486838E-02  3.1931697661E-02  5.2517726799E-01
  1.1789297659E+04  1.6634344631E+00  3.8471735492E+00  3.3635186636E-02  3.2688426626E-02  5.2825578289E-01
  1.1886287625E+04  1.6802825377E+00  3.8385912723E+00  3.4442343900E-02  3.3456364758E-02  5.3131276428E-01
  1.1983277592E+04  1.6971904588E+00  3.8301336088E+00  3.5262049318E-02  3.4235557768E-02  5.3434824915E-01
  1.2080267559E+04  1.7141969650E+00  3.8218466797E+00  3.6094393486E-02  3.5026084545E-02  5.3736225800E-01
  1.2177257525E+04  1.7312525042E+00  3.8136640678E+00  3.6939466907E-02  3.5827978108E-02  5.4035481493E-01
  1.2274247492E+04  1.7484203229E+00  3.8056600411E+00  3.7797359995E-02  3.6641330215E-02  5.4332594998E-01
  1.2371237458E+04  1.7656224254E+00  3.7977369882E+00  3.8668163074E-02  3.7466155860E-02  5.4627569884E-01
  1.2468227425E+04  1.7829544446E+00  3.7900041319E+00  3.9551966379E-02  3.8302565440E-02  5.4920410264E-01
  1.2565217391E+04  1.8003203205E+00  3.7823467598E+00  4.0455350504E-02  3.9156641049E-02  5.5211121052E-01
  1.2662207358E+04  1.8178011379E+00  3.7748536959E+00  4.1375381496E-02  4.0025636340E-02  5.5499708830E-01
  1.2759197324E+04  1.8353351068E+00  3.7674530344E+00  4.2309052141E-02  4.0906663655E-02  5.5786176658E-01
  1.2856187291E+04  1.8529623460E+00  3.7601856260E+00  4.3256458178E-02  4.1799806090E-02  5.6070527375E-01
  1.2953177258E+04  1.8706678839E+00  3.7530325308E+00  4.4217695283E-02  4.2705112574E-02  5.6352764388E-01
  1.3050167224E+04  1.8884400566E+00  3.7459786209E+00  4.5192859061E-02  4.3622632553E-02  5.6632891650E-01
  1.3147157191E+04  1.9063206766E+00  3.7390644737E+00  4.6182045056E-02  4.4552451021E-02  5.6910913634E-01
  1.3244147157E+04  1.9242373062E+00  3.7322137685E+00  4.7185348742E-02  4.5494574320E-02  5.7186835315E-01
  1.3341137124E+04  1.9422952266E+00  3.7255290984E+00  4.8202865531E-02  4.6449131876E-02  5.7460662147E-01
  1.3438127090E+04  1.9603912866E+00  3.7189059791E+00  4.9234690770E-02  4.7416105238E-02  5.7732400039E-01
  1.3535117057E+04  1.9785929781E+00  3.7124075765E+00  5.0280919742E-02  4.8395597532E-02  5.8002055338E-01
  1.3632107023E+04  1.9968720271E+00  3.7060044619E+00  5.1341647666E-02  4.9387641699E-02  5.8269634809E-01
  1.3729096990E+04  2.0152150678E+00  3.6996819557E+00  5.2417237053E-02  5.0392526823E-02  5.8535145616E-01
  1.3826086957E+04  2.0336806753E+00  3.6934916442E+00  5.3507983848E-02  5.1410536391E-02  5.8798595019E-01
  1.3923076923E+04  2.0521846268E+00  3.6873548556E+00  5.4613537262E-02  5.2441241502E-02  5.9059987676E-01
  1.4020066890E+04  2.0708180597E+00  3.6813507494E+00  5.5733992529E-02  5.3484768291E-02  5.9319327744E-01
  1.4117056856E+04  2.0895130311E+00  3.6754172642E+00  5.6869444820E-02  5.4541110754E-02  5.9576619900E-01
  1.4214046823E+04  2.1082846790E+00  3.6695657474E+00  5.8019989248E-02  5.5610330786E-02  5.9831869325E-01
  1.4311036789E+04  2.1271742776E+00  3.6638291900E+00  5.9185720863E-02  5.6692514673E-02  6.0085081676E-01
  1.4408026756E+04  2.1461038182E+00  3.6581402570E+00  6.0366734658E-02  5.7787640295E-02  6.0336263071E-01
  1.4505016722E+04  2.1651685313E+00  3.6525756075E+00  6.1563125564E-02  5.8895843155E-02  6.0585420067E-01
  1.4602006689E+04  2.1842972374E+00  3.6470751886E+00  6.2774988455E-02  6.0017104390E-02  6.0832559643E-01
  1.4698996656E+04  2.2034956042E+00  3.6416421311E+00  6.4002418146E-02  6.1151474629E-02  6.1077689178E-01
  1.4795986622E+04  2.2228271156E+00  3.6363245578E+00  6.5245509392E-02  6.2299062918E-02  6.1320816435E-01
  1.4892976589E+04  2.2422002549E+00  3.6310494173E+00  6.6504356892E-02  6.3459822682E-02  6.1561949218E-01
  1.4989966555E+04  2.2616927782E+00  3.6258748437E+00  6.7779055288E-02  6.4633877431E-02  6.1801093739E-01
  1.5086956522E+04  2.2812731314E+00  3.6207750699E+00  6.9083477668E-02  6.5833751868E-02  6.2038256012E-01
  1.5183946488E+04  2.3008958960E+00  3.6157150803E+00  7.0405994019E-02  6.7048755476E-02  6.2273442511E-01
  1.5280936455E+04  2.3206822915E+00  3.6107836409E+00  7.1745140784E-02  6.8277645231E-02  6.2506660151E-01
  1.5377926421E+04  2.3405147611E+00  3.6058920524E+00  7.3101019112E-02  6.9520336646E-02  6.2737916263E-01
  1.5474916388E+04  2.3604247664E+00  3.6010629253E+00  7.4473730120E-02  7.0776908672E-02  6.2967218575E-01
  1.5571906355E+04  2.3804673404E+00  3.5963350434E+00  7.5863374886E-02  7.2047471026E-02  6.3194575200E-01
  1.5668896321E+04  2.4005540641E+00  3.5916426676E+00  7.7270054455E-02  7.3331961441E-02  6.3419994610E-01
  1.5765886288E+04  2.4207501682E+00  3.5870325289E+00  7.8693869836E-02  7.4630501495E-02  6.3643485626E-01
  1.5862876254E+04  2.4410482658E+00  3.5824976432E+00  8.0134922006E-02  7.5943125144E-02  6.3865057389E-01
  1.5959866221E+04  2.4613912774E+00  3.5779960816E+00  8.1593311904E-02  7.7269799448E-02  6.4084718536E-01
  1.6056856187E+04  2.4818694775E+00  3.5735918054E+00  8.3069140439E-02  7.8610682892E-02  6.4302476620E-01
  1.6153846154E+04  2.5024250506E+00  3.5692419002E+00  8.4562508482E-02  7.9965739332E-02  6.4518339461E-01
  1.6250836120E+04  2.5230262927E+00  3.5649232818E+00  8.6073516873E-02  8.1334962164E-02  6.4732315264E-01
  1.6347826087E+04  2.5437824446E+00  3.5607124365E+00  8.7602266418E-02  8.2718542738E-02  6.4944412600E-01
  1.6444816054E+04  2.5645973551E+00  3.5565399938E+00  8.9148857889E-02  8.4116383059E-02  6.5154640389E-01
  1.6541806020E+04  2.5854598077E+00  3.5523977232E+00  9.0713392025E-02  8.5528500279E-02  6.5363007884E-01
  1.6638795987E+04  2.6064885077E+00  3.5483677284E+00  9.2295969531E-02  8.6955108062E-02  6.5569524650E-01
  1.6735785953E+04  2.6275645288E+00  3.5443656889E+00  9.3896691083E-02  8.8396062738E-02  6.5774200554E-01
  1.6832775920E+04  2.6486960353E+00  3.5403970168E+00  9.5515657319E-02  8.9851407762E-02  6.5977045671E-01
  1.6929765886E+04  2.6699868055E+00  3.5365324861E+00  9.7152968849E-02  9.1321342286E-02  6.6178068759E-01
  1.7026755853E+04  2.6913256228E+00  3.5326942143E+00  9.8808726248E-02  9.2805720976E-02  6.6377278707E-01
  1.7123745819E+04  2.7127217406E+00  3.5288883176E+00  1.0048303006E-01  9.4304587503E-02  6.6574685049E-01
  1.7220735786E+04  2.7342761888E+00  3.5251829003E+00  1.0217598080E-01  9.5818144497E-02  6.6770297616E-01
  1.7317725753E+04  2.7558794015E+00  3.5215021521E+00  1.0388767894E-01  9.7346235868E-02  6.6964126526E-01
  1.7414715719E+04  2.7775355845E+00  3.5178487275E+00  1.0561822494E-01  9.8888894689E-02  6.7156182168E-01
  1.7511705686E+04  2.7993552360E+00  3.5142964444E+00  1.0736935116E-01  1.0044777709E-01  6.7346475182E-01
  1.7608695652E+04  2.8212243607E+00  3.5107673390E+00  1.0915162466E-01  1.0203184419E-01  6.7535016448E-01
  1.7705685619E+04  2.8431427974E+00  3.5072611338E+00  1.1095342287E-01  1.0363083996E-01  6.7721817073E-01
  1.7802675585E+04  2.8652222977E+00  3.5038517877E+00  1.1277485057E-01  1.0524500605E-01  6.7907007145E-01
  1.7899665552E+04  2.8873587992E+00  3.5004687873E+00  1.1461601251E-01  1.0687417102E-01  6.8090759111E-01
  1.7996655518E+04  2.9095453156E+00  3.4971073083E+00  1.1647701345E-01  1.0851834385E-01  6.8273079129E-01
  1.8093645485E+04  2.9318755470E+00  3.4938287163E+00  1.1835795812E-01  1.1017773944E-01  6.8453972522E-01
  1.8190635452E+04  2.9542808270E+00  3.4905865985E+00  1.2025895123E-01  1.1185224426E-01  6.8633444843E-01
  1.8287625418E+04  2.9767368168E+00  3.4873647058E+00  1.2218009747E-01  1.1354182868E-01  6.8811501869E-01
  1.8384615385E+04  2.9993129515E+00  3.4842080447E+00  1.2412150151E-01  1.1524666338E-01  6.8988149591E-01
  1.8481605351E+04  3.0219883314E+00  3.4811018759E+00  1.2608326801E-01  1.1696672765E-01  6.9163394205E-01
  1.8578595318E+04  3.0447151079E+00  3.4780147129E+00  1.2806550161E-01  1.1870193576E-01  6.9337242099E-01
  1.8675585284E+04  3.0675322493E+00  3.4749715355E+00  1.3006830693E-01  1.2045239410E-01  6.9509699849E-01
  1.8772575251E+04  3.0904789710E+00  3.4719966512E+00  1.3209373878E-01  1.2221988448E-01  6.9680774208E-01
  1.8869565217E+04  3.1134777680E+00  3.4690396244E+00  1.3414100554E-01  1.2400347018E-01  6.9850472097E-01
  1.8966555184E+04  3.1365309609E+00  3.4661018342E+00  1.3620923232E-01  1.2580233001E-01  7.0018800598E-01
  1.9063545151E+04  3.1597501873E+00  3.4632538201E+00  1.3829852446E-01  1.2761675521E-01  7.0185766943E-01
  1.9160535117E+04  3.1830221598E+00  3.4604225815E+00  1.4040898728E-01  1.2944648501E-01  7.0351378511E-01
  1.9257525084E+04  3.2063467303E+00  3.4576079355E+00  1.4254072609E-01  1.3129153019E-01  7.0515642815E-01
  1.9354515050E+04  3.2297992169E+00  3.4548570838E+00  1.4469384618E-01  1.3315209920E-01  7.0678567500E-01
  1.9451505017E+04  3.2533454417E+00  3.4521475141E+00  1.4686845282E-01  1.3502811958E-01  7.0840160283E-01
  1.9548494983E+04  3.2769449294E+00  3.4494535308E+00  1.4906465128E-01  1.3691949504E-01  7.1000428020E-01
  1.9645484950E+04  3.3006231035E+00  3.4467908951E+00  1.5128254680E-01  1.3882630376E-01  7.1159376779E-01
  1.9742474916E+04  3.3244445804E+00  3.4441990886E+00  1.5352224462E-01  1.4074873826E-01  7.1317012790E-01
  1.9839464883E+04  3.3483199766E+00  3.4416219184E+00  1.5578384993E-01  1.4268655990E-01  7.1473342467E-01
  1.9936454849E+04  3.3722491498E+00  3.4390592311E+00  1.5806746796E-01  1.4463977314E-01  7.1628372407E-01
  2.0033444816E+04  3.3963165821E+00  3.4365626420E+00  1.6037842005E-01  1.4661299256E-01  7.1782109376E-01
  2.0130434783E+04  3.4204691036E+00  3.4340986083E+00  1.6272175581E-01  1.4861017092E-01  7.1934560301E-01
  2.0227424749E+04  3.4446760552E+00  3.4316481720E+00  1.6508779451E-01  1.5062302447E-01  7.2085732264E-01
  2.0324414716E+04  3.4689589648E+00  3.4292241050E+00  1.6747664531E-01  1.5265162272E-01  7.2235632493E-01
  2.0421404682E+04  3.4933914513E+00  3.4268695882E+00  1.6988841738E-01  1.5469620329E-01  7.2384268351E-01
  2.0518394649E+04  3.5178790314E+00  3.4245278327E+00  1.7232321985E-01  1.5675647685E-01  7.2531647332E-01
  2.0615384615E+04  3.5424215678E+00  3.4221987095E+00  1.7478116188E-01  1.5883244263E-01  7.2677777051E-01
  2.0712374582E+04  3.5670874298E+00  3.4199213492E+00  1.7726235262E-01  1.6092432515E-01  7.2822665240E-01
  2.0809364548E+04  3.5918590714E+00  3.4176848365E+00  1.7976690121E-01  1.6303207353E-01  7.2966319734E-01
  2.0906354515E+04  3.6166863502E+00  3.4154601761E+00  1.8229491679E-01  1.6515552151E-01  7.3108748474E-01
  2.1003344482E+04  3.6415691321E+00  3.4132472506E+00  1.8484650848E-01  1.6729466454E-01  7.3249959452E-01
  2.1100334448E+04  3.6666168981E+00  3.4111063877E+00  1.8742178542E-01  1.6944988034E-01  7.3389960124E-01
  2.1197324415E+04  3.6917323762E+00  3.4089829611E+00  1.9002085673E-01  1.7162083468E-01  7.3528757636E-01
  2.1294314381E+04  3.7169040555E+00  3.4068705411E+00  1.9264383153E-01  1.7380748113E-01  7.3666359265E-01
  2.1391304348E+04  3.7421527955E+00  3.4047802469E+00  1.9529081894E-01  1.7600988782E-01  7.3802772408E-01
  2.1488294314E+04  3.7675599357E+00  3.4027549787E+00  1.9796192807E-01  1.7822834979E-01  7.3938004576E-01
  2.1585284281E+04  3.7930239908E+00  3.4007400278E+00  2.0065726804E-01  1.8046249332E-01  7.4072063387E-01
  2.1682274247E+04  3.8185448315E+00  3.3987352956E+00  2.0337694794E-01  1.8271230743E-01  7.4204956558E-01
  2.1779264214E+04  3.8441688628E+00  3.3967646562E+00  2.0612107688E-01  1.8497795898E-01  7.4336691899E-01
  2.1876254181E+04  3.8699287757E+00  3.3948442796E+00  2.0888976394E-01  1.8725957049E-01  7.4467277306E-01
  2.1973244147E+04  3.8957462051E+00  3.3929334768E+00  2.1168311824E-01  1.8955683185E-01  7.4596720753E-01
  2.2070234114E+04  3.9216210247E+00  3.3910321581E+00  2.1450124885E-01  1.9186972841E-01  7.4725030290E-01
  2.2167224080E+04  3.9476177751E+00  3.3891723397E+00  2.1734426486E-01  1.9419850642E-01  7.4852214034E-01
  2.2264214047E+04  3.9737352928E+00  3.3873527385E+00  2.2021227535E-01  1.9654315579E-01  7.4978280163E-01
  2.2361204013E+04  3.9999109486E+00  3.3855420174E+00  2.2310551061E-01  1.9890350588E-01  7.5103236910E-01
  2.2458193980E+04  4.0261446189E+00  3.3837400948E+00  2.2604741898E-01  2.0129804630E-01  7.5227092521E-01
  2.2555183946E+04  4.0525109706E+00  3.3819826934E+00  2.2901516398E-01  2.0370879505E-01  7.5349854793E-01
  2.2652173913E+04  4.0789909777E+00  3.3802599963E+00  2.3200885962E-01  2.0613566384E-01  7.5471531293E-01
  2.2749163880E+04  4.1055297642E+00  3.3785455315E+00  2.3502861992E-01  2.0857840207E-01  7.5592129669E-01
  2.2846153846E+04  4.1321272094E+00  3.3768392248E+00  2.3807455891E-01  2.1103698839E-01  7.5711657636E-01
  2.2943143813E+04  4.1588594803E+00  3.3751762352E+00  2.4114679061E-01  2.1351174251E-01  7.5830122977E-01
  2.3040133779E+04  4.1857069114E+00  3.3735467977E+00  2.4424542906E-01  2.1600256587E-01  7.5947533536E-01
  2.3137123746E+04  4.2126137833E+00  3.3719249869E+00  2.4737058832E-01  2.1850918841E-01  7.6063897209E-01
  2.3234113712E+04  4.2395799776E+00  3.3703107352E+00  2.5052238245E-01  2.2103158509E-01  7.6179221943E-01
  2.3331103679E+04  4.2666739012E+00  3.3687345225E+00  2.5370092550E-01  2.2357005252E-01  7.6293515728E-01
  2.3428093645E+04  4.2938937392E+00  3.3671949097E+00  2.5690633155E-01  2.2612456807E-01  7.6406786592E-01
  2.3525083612E+04  4.3211736989E+00  3.3656623568E+00  2.6013871467E-01  2.2869479873E-01  7.6519042597E-01
  2.3622073579E+04  4.3485136643E+00  3.3641368027E+00  2.6339818897E-01  2.3128071580E-01  7.6630291838E-01
  2.3719063545E+04  4.3759643705E+00  3.3626400766E+00  2.6668486852E-01  2.3388254070E-01  7.6740542429E-01
  2.3816053512E+04  4.4035616440E+00  3.3611870477E+00  2.6999886744E-01  2.3650043201E-01  7.6849802481E-01
  2.3913043478E+04  4.4312197395E+00  3.3597405484E+00  2.7334029983E-01  2.3913394076E-01  7.6958079753E-01
  2.4010033445E+04  4.4589385435E+00  3.3583005228E+00  2.7670927981E-01  2.4178303464E-01  7.7065381786E-01
  2.4107023411E+04  4.4867405386E+00  3.3568763134E+00  2.8010592151E-01  2.4444779727E-01  7.7171716166E-01
  2.4204013378E+04  4.5147203195E+00  3.3555068083E+00  2.8353033906E-01  2.4712869468E-01  7.7277090511E-01
  2.4301003344E+04  4.5427616421E+00  3.3541433356E+00  2.8698264659E-01  2.4982509853E-01  7.7381512476E-01
  2.4397993311E+04  4.5708643956E+00  3.3527858446E+00  2.9046295827E-01  2.5253697298E-01  7.7484989741E-01
  2.4494983278E+04  4.5990284693E+00  3.3514342855E+00  2.9397138823E-01  2.5526428121E-01  7.7587530011E-01
  2.4591973244E+04  4.6273789434E+00  3.3501386071E+00  2.9750805065E-01  2.5800767118E-01  7.7689141009E-01
  2.4688963211E+04  4.6558086256E+00  3.3488552992E+00  3.0107305968E-01  2.6076653515E-01  7.7789830476E-01
  2.4785953177E+04  4.6843004801E+00  3.3475775115E+00  3.0466652952E-01  2.6354074217E-01  7.7889606161E-01
  2.4882943144E+04  4.7128543988E+00  3.3463051990E+00  3.0828857434E-01  2.6633025201E-01  7.7988475824E-01
  2.4979933110E+04  4.7415454179E+00  3.3450676133E+00  3.1193930833E-01  2.6913545521E-01  7.8086447228E-01
  2.5076923077E+04  4.7703672273E+00  3.3438617456E+00  3.1563757201E-01  2.7197019205E-01  7.8183528131E-01
  2.5173913043E+04  4.7992519585E+00  3.3426609649E+00  3.1937005761E-01  2.7482398664E-01  7.8279726088E-01
  2.5270903010E+04  4.8281995054E+00  3.3414652305E+00  3.2313204642E-01  2.7769319463E-01  7.8375048374E-01
  2.5367892977E+04  4.8572224448E+00  3.3402796542E+00  3.2692365678E-01  2.8057785005E-01  7.8469502263E-01
  2.5464882943E+04  4.8864307464E+00  3.3391485376E+00  3.3074500704E-01  2.8347860078E-01  7.8563095045E-01
  2.5561872910E+04  4.9157026503E+00  3.3380221018E+00  3.3459621556E-01  2.8639465470E-01  7.8655834019E-01
  2.5658862876E+04  4.9450380528E+00  3.3369003098E+00  3.3847740074E-01  2.8932596470E-01  7.8747726492E-01
  2.5755852843E+04  4.9744368508E+00  3.3357831251E+00  3.4238868098E-01  2.9227248276E-01  7.8838779775E-01
  2.5852842809E+04  5.0039711280E+00  3.3347019747E+00  3.4633017469E-01  2.9523465779E-01  7.8929001179E-01
  2.5949832776E+04  5.0336201857E+00  3.3336473159E+00  3.5030200032E-01  2.9821231326E-01  7.9018398013E-01
  2.6046822742E+04  5.0633333243E+00  3.3325969234E+00  3.5430427631E-01  3.0120505370E-01  7.9106977579E-01
  2.6143812709E+04  5.0931104429E+00  3.3315507641E+00  3.5833712112E-01  3.0421282777E-01  7.9194747170E-01
  2.6240802676E+04  5.1229516746E+00  3.3305089164E+00  3.6240065325E-01  3.0723558498E-01  7.9281714071E-01
  2.6337792642E+04  5.1529672579E+00  3.3295235974E+00  3.6649499119E-01  3.1027412603E-01  7.9367885461E-01
  2.6434782609E+04  5.1830474033E+00  3.3285421902E+00  3.7062025346E-01  3.1332756742E-01  7.9453268163E-01
  2.6531772575E+04  5.2131920121E+00  3.3275646648E+00  3.7477655858E-01  3.1639585458E-01  7.9537869108E-01
  2.6628762542E+04  5.2434009860E+00  3.3265909919E+00  3.7896402511E-01  3.1947893205E-01  7.9621695242E-01
  2.6725752508E+04  5.2737073463E+00  3.3256385570E+00  3.8318277161E-01  3.2257703123E-01  7.9704753501E-01
  2.6822742475E+04  5.3041431842E+00  3.3247238410E+00  3.8743291665E-01  3.2569038739E-01  7.9787050812E-01
  2.6919732441E+04  5.3346438673E+00  3.3238126768E+00  3.9171457883E-01  3.2881838836E-01  7.9868594071E-01
  2.7016722408E+04  5.3652092992E+00  3.3229050380E+00  3.9602787675E-01  3.3196097555E-01  7.9949390049E-01
  2.7113712375E+04  5.3958393842E+00  3.3220008982E+00  4.0037292904E-01  3.3511808956E-01  8.0029445488E-01
  2.7210702341E+04  5.4265845997E+00  3.3211301806E+00  4.0474985434E-01  3.3829017738E-01  8.0108758217E-01
  2.7307692308E+04  5.4574293710E+00  3.3202832159E+00  4.0915877131E-01  3.4147703779E-01  8.0187380600E-01
  2.7404682274E+04  5.4883391731E+00  3.3194394690E+00  4.1359983693E-01  3.4467829431E-01  8.0265578679E-01
  2.7501672241E+04  5.5193139122E+00  3.3185989162E+00  4.1807329535E-01  3.4789397118E-01  8.0343460173E-01
  2.7598662207E+04  5.5503534950E+00  3.3177615343E+00  4.2257910507E-01  3.5112389356E-01  8.0421026260E-01
  2.7695652174E+04  5.5815131616E+00  3.3169652291E+00  4.2711738483E-01  3.5436865335E-01  8.0498278366E-01
  2.7792642140E+04  5.6127546925E+00  3.3161833345E+00  4.3168825339E-01  3.5762775047E-01  8.0575217938E-01
  2.7889632107E+04  5.6440613423E+00  3.3154043472E+00  4.3629182952E-01  3.6090092441E-01  8.0651846417E-01
  2.7986622074E+04  5.6754330197E+00  3.3146282462E+00  4.4092823200E-01  3.6418810907E-01  8.0728165241E-01
  2.8083612040E+04  5.7068696337E+00  3.3138550109E+00  4.4559757965E-01  3.6748923761E-01  8.0804175838E-01
  2.8180602007E+04  5.7384214624E+00  3.3131261766E+00  4.5029999129E-01  3.7080497323E-01  8.0879879633E-01
  2.8277591973E+04  5.7700467440E+00  3.3124068281E+00  4.5503558573E-01  3.7413466036E-01  8.0955278044E-01
  2.8374581940E+04  5.8017371351E+00  3.3116900982E+00  4.5980448184E-01  3.7747811177E-01  8.1030372483E-01
  2.8471571906E+04  5.8334925465E+00  3.3109759682E+00  4.6460679847E-01  3.8083525790E-01  8.1105164355E-01
  2.8568561873E+04  5.8653128896E+00  3.3102644201E+00  4.6944265450E-01  3.8420602843E-01  8.1179655062E-01
  2.8665551839E+04  5.8972369561E+00  3.3095964534E+00  4.7431216882E-01  3.8759108283E-01  8.1253845998E-01
  2.8762541806E+04  5.9292321637E+00  3.3089372725E+00  4.7921546035E-01  3.9098975622E-01  8.1327738551E-01
  2.8859531773E+04  5.9612923739E+00  3.3082804414E+00  4.8415264799E-01  3.9440186403E-01  8.1401334103E-01
  2.8956521739E+04  5.9934174997E+00  3.3076259438E+00  4.8912385068E-01  3.9782733338E-01  8.1474634030E-01
  2.9053511706E+04  6.0256074543E+00  3.3069737635E+00  4.9412918737E-01  4.0126609072E-01  8.1547639704E-01
  2.9150501672E+04  6.0578864518E+00  3.3063603766E+00  4.9916877704E-01  4.0471871702E-01  8.1620352488E-01
  2.9247491639E+04  6.0902369662E+00  3.3057591195E+00  5.0424273864E-01  4.0818468360E-01  8.1692773740E-01
  2.9344481605E+04  6.1226522791E+00  3.3051599618E+00  5.0935119118E-01  4.1166373831E-01  8.1764904813E-01
  2.9441471572E+04  6.1551323055E+00  3.3045628892E+00  5.1449425367E-01  4.1515580518E-01  8.1836747054E-01
  2.9538461538E+04  6.1876769606E+00  3.3039678877E+00  5.1967204512E-01  4.1866080760E-01  8.1908301802E-01
  2.9635451505E+04  6.2202964660E+00  3.3034030872E+00  5.2488468456E-01  4.2217917542E-01  8.1979570393E-01
  2.9732441472E+04  6.2529869148E+00  3.3028576347E+00  5.3013229105E-01  4.2571065746E-01  8.2050554154E-01
  2.9829431438E+04  6.2857418616E+00  3.3023140483E+00  5.3541498365E-01  4.2925486587E-01  8.2121254408E-01
  2.9926421405E+04  6.3185612230E+00  3.3017723154E+00  5.4073288143E-01  4.3281172179E-01  8.2191672471E-01
  3.0023411371E+04  6.3514449165E+00  3.3012324240E+00  5.4609666528E-01  4.3638789018E-01  8.2261809654E-01
  3.0120401338E+04  6.3843959297E+00  3.3007104837E+00  5.5152953714E-01  4.3999821658E-01  8.2331667262E-01
  3.0217391304E+04  6.4174165896E+00  3.3002188100E+00  5.5699870116E-01  4.4362177668E-01  8.2401246592E-01
  3.0314381271E+04  6.4505013961E+00  3.2997287847E+00  5.6250428184E-01  4.4725796265E-01  8.2470548938E-01
  3.0411371237E+04  6.4836502681E+00  3.2992403972E+00  5.6804640371E-01  4.5090669148E-01  8.2539575585E-01
  3.0508361204E+04  6.5168631247E+00  3.2987536367E+00  5.7362519130E-01  4.5456787956E-01  8.2608327815E-01
  3.0605351171E+04  6.5501401026E+00  3.2982690894E+00  5.7924076920E-01  4.5824145526E-01  8.2676806903E-01
  3.0702341137E+04  6.5834966710E+00  3.2978292229E+00  5.8489326200E-01  4.6192824432E-01  8.2745014117E-01
  3.0799331104E+04  6.6169170950E+00  3.2973908020E+00  5.9058279432E-01  4.6562726473E-01  8.2812950720E-01
  3.0896321070E+04  6.6504012954E+00  3.2969538177E+00  5.9630949080E-01  4.6933843088E-01  8.2880617969E-01
  3.0993311037E+04  6.6839491930E+00  3.2965182606E+00  6.0207347612E-01  4.7306165660E-01  8.2948017115E-01
  3.1090301003E+04  6.7175607090E+00  3.2960841217E+00  6.0787487496E-01  4.7679685514E-01  8.3015149404E-01
  3.1187290970E+04  6.7512506721E+00  3.2956759493E+00  6.1371381204E-01  4.8054453687E-01  8.3082016075E-01
