#[MATERIAL DEFINITION FOR MC-GPU: interaction mean free path and sampling data from PENELOPE 2006]
#[MATERIAL NAME]
# Marrow_Bone10_22                                              
#[NOMINAL DENSITY (g/cm^3)]
#   1.63838000
#[NUMBER OF DATA VALUES]
#   1495
#[MEAN FREE PATHS (cm) (ie, average distance between interactions)]
#[Energy (eV)     | Rayleigh        | Compton         | Photoelectric   | TOTAL (+pair prod) (cm) | Rayleigh: max cumul prob F^2]
  5.0000000000E+03  7.8239672167E-01  5.7088522248E+00  3.8514242841E-03  3.8299869341E-03  2.6092768177E-01
  5.0969899666E+03  7.9691116910E-01  5.6535385044E+00  4.0572668705E-03  4.0338347603E-03  2.6582042483E-01
  5.1939799331E+03  8.1152291917E-01  5.6005356466E+00  4.2698803680E-03  4.2443127534E-03  2.7066819232E-01
  5.2909698997E+03  8.2623042121E-01  5.5497071883E+00  4.4893530847E-03  4.4615022837E-03  2.7547236647E-01
  5.3879598662E+03  8.4103207818E-01  5.5009265716E+00  4.7157727691E-03  4.6854839514E-03  2.8023424707E-01
  5.4849498328E+03  8.5592625300E-01  5.4540762702E+00  4.9492813830E-03  4.9163916312E-03  2.8495505333E-01
  5.5819397993E+03  8.7091127462E-01  5.4090470073E+00  5.1905710560E-03  5.1549015082E-03  2.8963600131E-01
  5.6789297659E+03  8.8598544392E-01  5.3657370530E+00  5.4391186096E-03  5.4004903234E-03  2.9427828962E-01
  5.7759197324E+03  9.0114703938E-01  5.3240515928E+00  5.6950109633E-03  5.6532368688E-03  2.9888299957E-01
  5.8729096990E+03  9.1639432273E-01  5.2839021597E+00  5.9583345340E-03  5.9132192016E-03  3.0345116333E-01
  5.9698996656E+03  9.3172554671E-01  5.2452061172E+00  6.2291752471E-03  6.1805146512E-03  3.0798381242E-01
  6.0668896321E+03  9.4713908862E-01  5.2078860592E+00  6.5082081726E-03  6.4557799958E-03  3.1248191455E-01
  6.1638795987E+03  9.6263367974E-01  5.1718691697E+00  6.7952422969E-03  6.7388188622E-03  3.1694633788E-01
  6.2608695652E+03  9.7820837943E-01  5.1370869150E+00  7.0912083798E-03  7.0305378290E-03  3.2137794417E-01
  6.3578595318E+03  9.9386224639E-01  5.1034750649E+00  7.3984353518E-03  7.3332151199E-03  3.2577761137E-01
  6.4548494983E+03  1.0095994256E+00  5.0710014326E+00  7.7139802022E-03  7.6439476598E-03  3.3014607023E-01
  6.5518394649E+03  1.0254202839E+00  5.0396148444E+00  8.0394132283E-03  7.9642675064E-03  3.3448396215E-01
  6.6488294314E+03  1.0413186243E+00  5.0092328923E+00  8.3740110929E-03  8.2934530282E-03  3.3879193501E-01
  6.7458193980E+03  1.0572933765E+00  4.9798053051E+00  8.7173515088E-03  8.6310794676E-03  3.4307064212E-01
  6.8428093645E+03  1.0733434483E+00  4.9512848189E+00  9.0695310400E-03  8.9772312149E-03  3.4732074131E-01
  6.9397993311E+03  1.0894677292E+00  4.9236269675E+00  9.4306458894E-03  9.3319919742E-03  3.5154285965E-01
  7.0367892977E+03  1.1056656824E+00  4.8967927058E+00  9.8014574815E-03  9.6960961664E-03  3.5573746116E-01
  7.1337792642E+03  1.1219541246E+00  4.8708247037E+00  1.0182558156E-02  1.0070112707E-02  3.5990497420E-01
  7.2307692308E+03  1.1383152653E+00  4.8456016641E+00  1.0572988884E-02  1.0453089287E-02  3.6404583546E-01
  7.3277591973E+03  1.1547482459E+00  4.8210878829E+00  1.0972846959E-02  1.0845109119E-02  3.6816048863E-01
  7.4247491639E+03  1.1712521590E+00  4.7972497395E+00  1.1382229345E-02  1.1246254725E-02  3.7224938316E-01
  7.5217391304E+03  1.1878369143E+00  4.7740997340E+00  1.1801232679E-02  1.1656609247E-02  3.7631291328E-01
  7.6187290970E+03  1.2045057242E+00  4.7516201324E+00  1.2229953281E-02  1.2076254529E-02  3.8035136906E-01
  7.7157190635E+03  1.2212441613E+00  4.7297261883E+00  1.2668487154E-02  1.2505269512E-02  3.8436503952E-01
  7.8127090301E+03  1.2380511505E+00  4.7083911450E+00  1.3116929991E-02  1.2943733987E-02  3.8835422175E-01
  7.9096989967E+03  1.2549432121E+00  4.6876533456E+00  1.3575377181E-02  1.3391729579E-02  3.9231922009E-01
  8.0066889632E+03  1.2719153457E+00  4.6674692276E+00  1.4044491088E-02  1.3849886093E-02  3.9626032423E-01
  8.1036789298E+03  1.2889544426E+00  4.6477713534E+00  1.4531709999E-02  1.4325415046E-02  4.0017773888E-01
  8.2006688963E+03  1.3060650316E+00  4.6285571724E+00  1.5029697809E-02  1.4811162291E-02  4.0407165492E-01
  8.2976588629E+03  1.3232706122E+00  4.6098821116E+00  1.5538559906E-02  1.5307218123E-02  4.0794227157E-01
  8.3946488294E+03  1.3405419214E+00  4.5916314197E+00  1.6058401432E-02  1.5813663538E-02  4.1178979558E-01
  8.4916387960E+03  1.3578789158E+00  4.5737908016E+00  1.6589327285E-02  1.6330583401E-02  4.1561442294E-01
  8.5886287625E+03  1.3753186381E+00  4.5564524334E+00  1.7131442129E-02  1.6858068914E-02  4.1941628775E-01
  8.6856187291E+03  1.3928225039E+00  4.5394851210E+00  1.7684850386E-02  1.7396196776E-02  4.2319551695E-01
  8.7826086957E+03  1.4103939764E+00  4.5228869095E+00  1.8249656250E-02  1.7945050492E-02  4.2695224555E-01
  8.8795986622E+03  1.4280676720E+00  4.5067355369E+00  1.8825963683E-02  1.8504719564E-02  4.3068661740E-01
  8.9765886288E+03  1.4458034864E+00  4.4909091346E+00  1.9413876420E-02  1.9075277464E-02  4.3439879045E-01
  9.0735785953E+03  1.4636173614E+00  4.4754378951E+00  2.0016620184E-02  1.9659820408E-02  4.3808883679E-01
  9.1705685619E+03  1.4815241016E+00  4.4603431145E+00  2.0632351772E-02  2.0256548859E-02  4.4175681057E-01
  9.2675585284E+03  1.4994906387E+00  4.4455334424E+00  2.1260209792E-02  2.0864603081E-02  4.4540277458E-01
  9.3645484950E+03  1.5175555692E+00  4.4310873205E+00  2.1900301402E-02  2.1484074894E-02  4.4902679974E-01
  9.4615384615E+03  1.5356942975E+00  4.4169354043E+00  2.2552733562E-02  2.2115040190E-02  4.5262896449E-01
  9.5585284281E+03  1.5539027336E+00  4.4030604709E+00  2.3217613032E-02  2.2757578892E-02  4.5620935435E-01
  9.6555183946E+03  1.5722152886E+00  4.3895227661E+00  2.3895046377E-02  2.3411780762E-02  4.5976806139E-01
  9.7525083612E+03  1.5905839316E+00  4.3762141436E+00  2.4585139970E-02  2.4077712363E-02  4.6330517780E-01
  9.8494983278E+03  1.6090581176E+00  4.3632236070E+00  2.5287999990E-02  2.4755466791E-02  4.6682073589E-01
  9.9464882943E+03  1.6276009787E+00  4.3504691915E+00  2.6003732429E-02  2.5445111735E-02  4.7031474618E-01
  1.0043478261E+04  1.6462271201E+00  4.3379712955E+00  2.6735721717E-02  2.6149865649E-02  4.7378722861E-01
  1.0140468227E+04  1.6649454225E+00  4.3257359934E+00  2.7485075149E-02  2.6870757420E-02  4.7723821077E-01
  1.0237458194E+04  1.6837267157E+00  4.3137054235E+00  2.8247961617E-02  2.7604083446E-02  4.8066772746E-01
  1.0334448161E+04  1.7026217765E+00  4.3019581607E+00  2.9024492922E-02  2.8349941484E-02  4.8407582030E-01
  1.0431438127E+04  1.7215663211E+00  4.2903798701E+00  2.9814780711E-02  2.9108389357E-02  4.8746253732E-01
  1.0528428094E+04  1.7406346491E+00  4.2790846310E+00  3.0618936473E-02  2.9879532735E-02  4.9082792941E-01
  1.0625418060E+04  1.7597555077E+00  4.2679516513E+00  3.1437071542E-02  3.0663424169E-02  4.9417201247E-01
  1.0722408027E+04  1.7789884635E+00  4.2570677503E+00  3.2269297100E-02  3.1460163814E-02  4.9749478620E-01
  1.0819397993E+04  1.7982864379E+00  4.2463544905E+00  3.3115724175E-02  3.2269810467E-02  5.0079625802E-01
  1.0916387960E+04  1.8176874380E+00  4.2358629277E+00  3.3976463649E-02  3.3092455587E-02  5.0407644237E-01
  1.1013377926E+04  1.8371631075E+00  4.2255454201E+00  3.4851626252E-02  3.3928163050E-02  5.0733536037E-01
  1.1110367893E+04  1.8567355797E+00  4.2154283908E+00  3.5741322567E-02  3.4777017027E-02  5.1057303945E-01
  1.1207357860E+04  1.8763892951E+00  4.2054841646E+00  3.6647911097E-02  3.5641211004E-02  5.1378951304E-01
  1.1304347826E+04  1.8961366773E+00  4.1957249639E+00  3.7575281010E-02  3.6524387855E-02  5.1698480718E-01
  1.1401337793E+04  1.9159685546E+00  4.1861329312E+00  3.8517859011E-02  3.7421233679E-02  5.2015892282E-01
  1.1498327759E+04  1.9358942950E+00  4.1767158684E+00  3.9475761152E-02  3.8331829217E-02  5.2331186429E-01
  1.1595317726E+04  1.9559042087E+00  4.1674562200E+00  4.0449103364E-02  3.9256245079E-02  5.2644364257E-01
  1.1692307692E+04  1.9760117647E+00  4.1583665407E+00  4.1438001460E-02  4.0194562783E-02  5.2955427494E-01
  1.1789297659E+04  1.9961993416E+00  4.1494206518E+00  4.2442571137E-02  4.1146846917E-02  5.3264378476E-01
  1.1886287625E+04  2.0164921790E+00  4.1406444669E+00  4.3462927971E-02  4.2113184090E-02  5.3571220118E-01
  1.1983277592E+04  2.0368567915E+00  4.1319948113E+00  4.4499187425E-02  4.3093628040E-02  5.3875954912E-01
  1.2080267559E+04  2.0573383839E+00  4.1235190331E+00  4.5551464848E-02  4.4088275756E-02  5.4178583627E-01
  1.2177257525E+04  2.0778791430E+00  4.1151491046E+00  4.6619875474E-02  4.5097164265E-02  5.4479107412E-01
  1.2274247492E+04  2.0985529711E+00  4.1069613876E+00  4.7704534423E-02  4.6120407318E-02  5.4777528035E-01
  1.2371237458E+04  2.1192687199E+00  4.0988556288E+00  4.8805556705E-02  4.7158018214E-02  5.5073847853E-01
  1.2468227425E+04  2.1401382770E+00  4.0909443280E+00  4.9923057219E-02  4.8210135066E-02  5.5368069788E-01
  1.2565217391E+04  2.1610492437E+00  4.0831094241E+00  5.1065250295E-02  4.9284297994E-02  5.5660197597E-01
  1.2662207358E+04  2.1820965994E+00  4.0754425583E+00  5.2228478135E-02  5.0377099048E-02  5.5950236781E-01
  1.2759197324E+04  2.2032079564E+00  4.0678696243E+00  5.3408990579E-02  5.1484949594E-02  5.6238189223E-01
  1.2856187291E+04  2.2244303832E+00  4.0604328551E+00  5.4606909461E-02  5.2607951464E-02  5.6524056579E-01
  1.2953177258E+04  2.2457463180E+00  4.0531127450E+00  5.5822356533E-02  5.3746161585E-02  5.6807841099E-01
  1.3050167224E+04  2.2671421150E+00  4.0458937437E+00  5.7055453464E-02  5.4899637532E-02  5.7089545600E-01
  1.3147157191E+04  2.2886668617E+00  4.0388178310E+00  5.8306321843E-02  5.6068483493E-02  5.7369173445E-01
  1.3244147157E+04  2.3102355053E+00  4.0318061668E+00  5.9575083176E-02  5.7252700280E-02  5.7646728520E-01
  1.3341137124E+04  2.3319717799E+00  4.0249649247E+00  6.0861858893E-02  5.8452450429E-02  5.7922215210E-01
  1.3438127090E+04  2.3537544466E+00  4.0181860517E+00  6.2166770340E-02  5.9667701991E-02  5.8195638382E-01
  1.3535117057E+04  2.3756629064E+00  4.0115349939E+00  6.3489938786E-02  6.0898582874E-02  5.8467003363E-01
  1.3632107023E+04  2.3976638923E+00  4.0049813171E+00  6.4831485424E-02  6.2145128576E-02  5.8736315917E-01
  1.3729096990E+04  2.4197417037E+00  3.9985098724E+00  6.6191904322E-02  6.3407728700E-02  5.9003582233E-01
  1.3826086957E+04  2.4419653210E+00  3.9921741744E+00  6.7571596798E-02  6.4686761073E-02  5.9268808656E-01
  1.3923076923E+04  2.4642355520E+00  3.9858927004E+00  6.8970061939E-02  6.5981624637E-02  5.9531998841E-01
  1.4020066890E+04  2.4866598256E+00  3.9797476222E+00  7.0387420999E-02  6.7292477486E-02  5.9793155900E-01
  1.4117056856E+04  2.5091580481E+00  3.9736745772E+00  7.1823795158E-02  6.8619303478E-02  6.0052283493E-01
  1.4214046823E+04  2.5317480999E+00  3.9676853976E+00  7.3279305521E-02  6.9962175951E-02  6.0309385803E-01
  1.4311036789E+04  2.5544786779E+00  3.9618143870E+00  7.4754073117E-02  7.1321200360E-02  6.0564467517E-01
  1.4408026756E+04  2.5772577364E+00  3.9559916314E+00  7.6248218903E-02  7.2696339080E-02  6.0817533805E-01
  1.4505016722E+04  2.6001977335E+00  3.9502968630E+00  7.7761863761E-02  7.4087762485E-02  6.1068590300E-01
  1.4602006689E+04  2.6232146085E+00  3.9446676762E+00  7.9295128501E-02  7.5495437084E-02  6.1317643079E-01
  1.4698996656E+04  2.6463150790E+00  3.9391073716E+00  8.0848133861E-02  7.6919421109E-02  6.1564698646E-01
  1.4795986622E+04  2.6695741794E+00  3.9336660645E+00  8.2421000507E-02  7.8359849917E-02  6.1809763907E-01
  1.4892976589E+04  2.6928837367E+00  3.9282677527E+00  8.4013849033E-02  7.9816653185E-02  6.2052845828E-01
  1.4989966555E+04  2.7163357344E+00  3.9229730239E+00  8.5626799962E-02  8.1289985362E-02  6.2293949769E-01
  1.5086956522E+04  2.7398928421E+00  3.9177550652E+00  8.7277167001E-02  8.2795326188E-02  6.2533080921E-01
  1.5183946488E+04  2.7635013248E+00  3.9125774180E+00  8.8950442105E-02  8.4319443280E-02  6.2770244959E-01
  1.5280936455E+04  2.7873047922E+00  3.9075327215E+00  9.0644801595E-02  8.5860805492E-02  6.3005448019E-01
  1.5377926421E+04  2.8111639701E+00  3.9025284594E+00  9.2360374190E-02  8.7419291191E-02  6.3238696674E-01
  1.5474916388E+04  2.8351162003E+00  3.8975882866E+00  9.4097288563E-02  8.8994995249E-02  6.3469997918E-01
  1.5571906355E+04  2.8592267975E+00  3.8927527657E+00  9.5855673347E-02  9.0588053311E-02  6.3699359146E-01
  1.5668896321E+04  2.8833908203E+00  3.8879532130E+00  9.7635657132E-02  9.2198372754E-02  6.3926788139E-01
  1.5765886288E+04  2.9076858250E+00  3.8832385726E+00  9.9437368463E-02  9.3826105082E-02  6.4152293043E-01
  1.5862876254E+04  2.9321030284E+00  3.8786015610E+00  1.0126093585E-01  9.5471285252E-02  6.4375882345E-01
  1.5959866221E+04  2.9565745608E+00  3.8739983018E+00  1.0310648775E-01  9.7133859230E-02  6.4597564037E-01
  1.6056856187E+04  2.9812079554E+00  3.8694958914E+00  1.0497415259E-01  9.8814027779E-02  6.4817345042E-01
  1.6153846154E+04  3.0059343424E+00  3.8650493529E+00  1.0686405876E-01  1.0051173233E-01  6.5035232567E-01
  1.6250836120E+04  3.0307159537E+00  3.8606344962E+00  1.0877633458E-01  1.0222695362E-01  6.5251234224E-01
  1.6347826087E+04  3.0556831617E+00  3.8563316872E+00  1.1071110837E-01  1.0395993649E-01  6.5465358011E-01
  1.6444816054E+04  3.0807212149E+00  3.8520680813E+00  1.1266850838E-01  1.0571053950E-01  6.5677612292E-01
  1.6541806020E+04  3.1058167277E+00  3.8478350510E+00  1.1464866283E-01  1.0747877488E-01  6.5888005781E-01
  1.6638795987E+04  3.1311116418E+00  3.8437190062E+00  1.1665169990E-01  1.0926491764E-01  6.6096547523E-01
  1.6735785953E+04  3.1564637510E+00  3.8396312496E+00  1.1867774773E-01  1.1106876476E-01  6.6303246883E-01
  1.6832775920E+04  3.1818828360E+00  3.8355775015E+00  1.2072693442E-01  1.1289036356E-01  6.6508113453E-01
  1.6929765886E+04  3.2074932341E+00  3.8316323731E+00  1.2279938803E-01  1.1472997000E-01  6.6711155563E-01
  1.7026755853E+04  3.2331616969E+00  3.8277138049E+00  1.2489523659E-01  1.1658737826E-01  6.6912381635E-01
  1.7123745819E+04  3.2588993323E+00  3.8238282693E+00  1.2701460807E-01  1.1846263590E-01  6.7111800729E-01
  1.7220735786E+04  3.2848274284E+00  3.8200476798E+00  1.2915763041E-01  1.2035600393E-01  6.7309422222E-01
  1.7317725753E+04  3.3108144512E+00  3.8162920300E+00  1.3132443154E-01  1.2226726153E-01  6.7505255793E-01
  1.7414715719E+04  3.3368654597E+00  3.8125641417E+00  1.3351513930E-01  1.2419644197E-01  6.7699311409E-01
  1.7511705686E+04  3.3631133717E+00  3.8089420802E+00  1.3573194646E-01  1.2614562410E-01  6.7891599305E-01
  1.7608695652E+04  3.3894210650E+00  3.8053434371E+00  1.3798822489E-01  1.2812596638E-01  6.8082129972E-01
  1.7705685619E+04  3.4157883454E+00  3.8017679332E+00  1.4026926947E-01  1.3012465061E-01  6.8270914142E-01
  1.7802675585E+04  3.4423498178E+00  3.7982938616E+00  1.4257521357E-01  1.3214199062E-01  6.8458074987E-01
  1.7899665552E+04  3.4689801416E+00  3.7948466141E+00  1.4490619056E-01  1.3417774354E-01  6.8643775721E-01
  1.7996655518E+04  3.4956709020E+00  3.7914210986E+00  1.4726233377E-01  1.3623190959E-01  6.8828022474E-01
  1.8093645485E+04  3.5225350680E+00  3.7880823246E+00  1.4964377652E-01  1.3830476675E-01  6.9010820609E-01
  1.8190635452E+04  3.5494898551E+00  3.7847811552E+00  1.5205065211E-01  1.4039614994E-01  6.9192175728E-01
  1.8287625418E+04  3.5765059200E+00  3.7815003944E+00  1.5448309381E-01  1.4250600725E-01  6.9372093666E-01
  1.8384615385E+04  3.6036670577E+00  3.7782877570E+00  1.5694123488E-01  1.4463455717E-01  6.9550580480E-01
  1.8481605351E+04  3.6309480488E+00  3.7751276408E+00  1.5942520855E-01  1.4678175974E-01  6.9727642438E-01
  1.8578595318E+04  3.6582911506E+00  3.7719866878E+00  1.6193514803E-01  1.4894748719E-01  6.9903286012E-01
  1.8675585284E+04  3.6857434370E+00  3.7688914043E+00  1.6447118652E-01  1.5113187130E-01  7.0077517866E-01
  1.8772575251E+04  3.7133522821E+00  3.7658675890E+00  1.6703588948E-01  1.5333710143E-01  7.0250344848E-01
  1.8869565217E+04  3.7410240623E+00  3.7628617637E+00  1.6962827258E-01  1.5556199464E-01  7.0421773981E-01
  1.8966555184E+04  3.7687615841E+00  3.7598754035E+00  1.7224724742E-01  1.5780553290E-01  7.0591812456E-01
  1.9063545151E+04  3.7966998432E+00  3.7569833907E+00  1.7489294811E-01  1.6006809796E-01  7.0760467620E-01
  1.9160535117E+04  3.8247018533E+00  3.7541082620E+00  1.7756550873E-01  1.6234932497E-01  7.0927746972E-01
  1.9257525084E+04  3.8527674361E+00  3.7512498340E+00  1.8026506333E-01  1.6464921636E-01  7.1093658150E-01
  1.9354515050E+04  3.8809877628E+00  3.7484582510E+00  1.8299174597E-01  1.6696804217E-01  7.1258208928E-01
  1.9451505017E+04  3.9093214653E+00  3.7457096199E+00  1.8574569068E-01  1.6930569215E-01  7.1421407164E-01
  1.9548494983E+04  3.9377195507E+00  3.7429766605E+00  1.8852703146E-01  1.7166202374E-01  7.1583259826E-01
  1.9645484950E+04  3.9662128273E+00  3.7402761348E+00  1.9133590231E-01  1.7403713077E-01  7.1743773031E-01
  1.9742474916E+04  3.9948795962E+00  3.7376500188E+00  1.9417243720E-01  1.7643126192E-01  7.1902953056E-01
  1.9839464883E+04  4.0236115498E+00  3.7350386031E+00  1.9703677009E-01  1.7884408168E-01  7.2060806377E-01
  1.9936454849E+04  4.0524085165E+00  3.7324417341E+00  1.9992903491E-01  1.8127558397E-01  7.2217339657E-01
  2.0033444816E+04  4.0813729543E+00  3.7299143155E+00  2.0285588101E-01  1.8373144781E-01  7.2372559737E-01
  2.0130434783E+04  4.1104403845E+00  3.7274206897E+00  2.0582361911E-01  1.8621648452E-01  7.2526473630E-01
  2.0227424749E+04  4.1395736266E+00  3.7249407046E+00  2.0882016018E-01  1.8872051167E-01  7.2679088508E-01
  2.0324414716E+04  4.1687987752E+00  3.7224879577E+00  2.1184564315E-01  1.9124361095E-01  7.2830411700E-01
  2.0421404682E+04  4.1982050657E+00  3.7201084038E+00  2.1490020694E-01  1.9378609184E-01  7.2980450674E-01
  2.0518394649E+04  4.2276779784E+00  3.7177416350E+00  2.1798399047E-01  1.9634754981E-01  7.3129213037E-01
  2.0615384615E+04  4.2572173482E+00  3.7153875226E+00  2.2109713266E-01  1.9892797136E-01  7.3276706523E-01
  2.0712374582E+04  4.2869059614E+00  3.7130877222E+00  2.2423977242E-01  2.0152764803E-01  7.3422938989E-01
  2.0809364548E+04  4.3167225756E+00  3.7108306301E+00  2.2741204865E-01  2.0414649847E-01  7.3567918403E-01
  2.0906354515E+04  4.3466064770E+00  3.7085853961E+00  2.3061410028E-01  2.0678428523E-01  7.3711652837E-01
  2.1003344482E+04  4.3765575043E+00  3.7063519033E+00  2.3384606619E-01  2.0944098982E-01  7.3854150427E-01
  2.1100334448E+04  4.4067080923E+00  3.7041943890E+00  2.3710808528E-01  2.1211711066E-01  7.3995418749E-01
  2.1197324415E+04  4.4369405791E+00  3.7020547079E+00  2.4040029646E-01  2.1481218343E-01  7.4135465053E-01
  2.1294314381E+04  4.4672410416E+00  3.6999260223E+00  2.4372283861E-01  2.1752613303E-01  7.4274296722E-01
  2.1391304348E+04  4.4976346882E+00  3.6978201816E+00  2.4707585063E-01  2.2025903928E-01  7.4411921267E-01
  2.1488294314E+04  4.5282198170E+00  3.6957828853E+00  2.5045947138E-01  2.2301128843E-01  7.4548346321E-01
  2.1585284281E+04  4.5588737887E+00  3.6937558789E+00  2.5387383977E-01  2.2578236338E-01  7.4683579628E-01
  2.1682274247E+04  4.5895964478E+00  3.6917390643E+00  2.5731909465E-01  2.2857223716E-01  7.4817629035E-01
  2.1779264214E+04  4.6204438197E+00  3.6897578831E+00  2.6079537492E-01  2.3138112277E-01  7.4950502491E-01
  2.1876254181E+04  4.6514553750E+00  3.6878295728E+00  2.6430281943E-01  2.3420917333E-01  7.5082208032E-01
  2.1973244147E+04  4.6825365046E+00  3.6859107941E+00  2.6784156705E-01  2.3705595827E-01  7.5212753781E-01
  2.2070234114E+04  4.7136870564E+00  3.6840014580E+00  2.7141175665E-01  2.3992144578E-01  7.5342147938E-01
  2.2167224080E+04  4.7449848776E+00  3.6821356910E+00  2.7501352708E-01  2.4280595575E-01  7.5470398772E-01
  2.2264214047E+04  4.7764285677E+00  3.6803121365E+00  2.7864701721E-01  2.4570946249E-01  7.5597514621E-01
  2.2361204013E+04  4.8079425864E+00  3.6784974059E+00  2.8231251852E-01  2.4863171256E-01  7.5723503881E-01
  2.2458193980E+04  4.8395267848E+00  3.6766914186E+00  2.8603956365E-01  2.5159540973E-01  7.5848374961E-01
  2.2555183946E+04  4.8712711409E+00  3.6749322633E+00  2.8979939479E-01  2.5457847184E-01  7.5972135800E-01
  2.2652173913E+04  4.9031527299E+00  3.6732094848E+00  2.9359215704E-01  2.5758076754E-01  7.6094794095E-01
  2.2749163880E+04  4.9351054244E+00  3.6714948696E+00  2.9741799551E-01  2.6060194710E-01  7.6216357625E-01
  2.2846153846E+04  4.9671290788E+00  3.6697883443E+00  3.0127705532E-01  2.6364196958E-01  7.6336834244E-01
  2.2943143813E+04  4.9993153954E+00  3.6681274085E+00  3.0516948160E-01  2.6670125270E-01  7.6456231876E-01
  2.3040133779E+04  5.0316407005E+00  3.6665016587E+00  3.0909541951E-01  2.6977965159E-01  7.6574558510E-01
  2.3137123746E+04  5.0640379107E+00  3.6648834542E+00  3.1305501420E-01  2.7287679093E-01  7.6691822192E-01
  2.3234113712E+04  5.0965068835E+00  3.6632727288E+00  3.1704841084E-01  2.7599262496E-01  7.6808031021E-01
  2.3331103679E+04  5.1291299047E+00  3.6617020022E+00  3.2107575460E-01  2.7912754011E-01  7.6923193142E-01
  2.3428093645E+04  5.1619047937E+00  3.6601697480E+00  3.2513719068E-01  2.8228149379E-01  7.7037316745E-01
  2.3525083612E+04  5.1947524098E+00  3.6586444614E+00  3.2923286427E-01  2.8545402671E-01  7.7150410052E-01
  2.3622073579E+04  5.2276726137E+00  3.6571260821E+00  3.3336292060E-01  2.8864508843E-01  7.7262481320E-01
  2.3719063545E+04  5.2607263802E+00  3.6556379089E+00  3.3752750489E-01  2.9185496422E-01  7.7373538832E-01
  2.3816053512E+04  5.2939567690E+00  3.6541958168E+00  3.4172676237E-01  2.9508385484E-01  7.7483590865E-01
  2.3913043478E+04  5.3272607292E+00  3.6527601510E+00  3.4596083829E-01  2.9833114612E-01  7.7592645327E-01
  2.4010033445E+04  5.3606381246E+00  3.6513308571E+00  3.5022987791E-01  3.0159678303E-01  7.7700709895E-01
  2.4107023411E+04  5.3941159518E+00  3.6499179121E+00  3.5453402649E-01  3.0488086598E-01  7.7807792293E-01
  2.4204013378E+04  5.4278078013E+00  3.6485628331E+00  3.5887342931E-01  3.0818400782E-01  7.7913900282E-01
  2.4301003344E+04  5.4615740890E+00  3.6472136734E+00  3.6324823167E-01  3.1150535480E-01  7.8019041661E-01
  2.4397993311E+04  5.4954146813E+00  3.6458703837E+00  3.6765857886E-01  3.1484484746E-01  7.8123224258E-01
  2.4494983278E+04  5.5293294454E+00  3.6445329151E+00  3.7210461620E-01  3.1820242510E-01  7.8226455928E-01
  2.4591973244E+04  5.5634684507E+00  3.6432546066E+00  3.7658648900E-01  3.2157894358E-01  7.8328744547E-01
  2.4688963211E+04  5.5977030916E+00  3.6419890073E+00  3.8110434260E-01  3.2497357792E-01  7.8430098010E-01
  2.4785953177E+04  5.6320129289E+00  3.6407288073E+00  3.8565832234E-01  3.2838614167E-01  7.8530524223E-01
  2.4882943144E+04  5.6663978323E+00  3.6394739624E+00  3.9024857358E-01  3.3181656982E-01  7.8630031105E-01
  2.4979933110E+04  5.7009477994E+00  3.6382557198E+00  3.9487524168E-01  3.3526537360E-01  7.8728626576E-01
  2.5076923077E+04  5.7356552641E+00  3.6370708732E+00  3.9956196895E-01  3.3874934632E-01  7.8826318558E-01
  2.5173913043E+04  5.7704388256E+00  3.6358909839E+00  4.0429206056E-01  3.4225568806E-01  7.8923114755E-01
  2.5270903010E+04  5.8052983566E+00  3.6347160124E+00  4.0905959791E-01  3.4577995411E-01  7.9019022575E-01
  2.5367892977E+04  5.8402489907E+00  3.6335514227E+00  4.1386473159E-01  3.4932217911E-01  7.9114049427E-01
  2.5464882943E+04  5.8754230561E+00  3.6324445398E+00  4.1870761223E-01  3.5288322049E-01  7.9208202738E-01
  2.5561872910E+04  5.9106740406E+00  3.6313422001E+00  4.2358839048E-01  3.5646200543E-01  7.9301489946E-01
  2.5658862876E+04  5.9460018195E+00  3.6302443677E+00  4.2850721698E-01  3.6005846014E-01  7.9393918500E-01
  2.5755852843E+04  5.9814062689E+00  3.6291510073E+00  4.3346424244E-01  3.6367250964E-01  7.9485495852E-01
  2.5852842809E+04  6.0169746126E+00  3.6280956896E+00  4.3845961757E-01  3.6730474776E-01  7.9576229458E-01
  2.5949832776E+04  6.0526818074E+00  3.6270682288E+00  4.4349349309E-01  3.7095492651E-01  7.9666126772E-01
  2.6046822742E+04  6.0884665070E+00  3.6260448905E+00  4.4856601975E-01  3.7462250367E-01  7.9755195245E-01
  2.6143812709E+04  6.1243285902E+00  3.6250256427E+00  4.5367734835E-01  3.7830740027E-01  7.9843442317E-01
  2.6240802676E+04  6.1602682205E+00  3.6240105729E+00  4.5882762966E-01  3.8200953862E-01  7.9930875421E-01
  2.6337792642E+04  6.1964197138E+00  3.6230554554E+00  4.6401701451E-01  3.8572999115E-01  8.0017501882E-01
  2.6434782609E+04  6.2326493070E+00  3.6221040991E+00  4.6924565374E-01  3.8946755447E-01  8.0103328644E-01
  2.6531772575E+04  6.2689568816E+00  3.6211564755E+00  4.7451369821E-01  3.9322214572E-01  8.0188362770E-01
  2.6628762542E+04  6.3053423193E+00  3.6202125562E+00  4.7982129880E-01  3.9699368097E-01  8.0272611339E-01
  2.6725752508E+04  6.3418462087E+00  3.6192909122E+00  4.8516860641E-01  4.0078246589E-01  8.0356081424E-01
  2.6822742475E+04  6.3785079966E+00  3.6184091506E+00  4.9055577198E-01  4.0458881111E-01  8.0438780087E-01
  2.6919732441E+04  6.4152482477E+00  3.6175307854E+00  4.9598294644E-01  4.0841187718E-01  8.0520714360E-01
  2.7016722408E+04  6.4520668463E+00  3.6166557912E+00  5.0145028076E-01  4.1225157649E-01  8.0601891143E-01
  2.7113712375E+04  6.4889636774E+00  3.6157841431E+00  5.0695792593E-01  4.1610782043E-01  8.0682317310E-01
  2.7210702341E+04  6.5260015006E+00  3.6149478006E+00  5.1250603295E-01  4.1998121150E-01  8.0761991321E-01
  2.7307692308E+04  6.5631609585E+00  3.6141364432E+00  5.1809475286E-01  4.2387146743E-01  8.0840963084E-01
  2.7404682274E+04  6.6003991321E+00  3.6133281435E+00  5.2372429213E-01  4.2777806800E-01  8.0919484042E-01
  2.7501672241E+04  6.6377159086E+00  3.6125228792E+00  5.2939498333E-01  4.3170104144E-01  8.0997656326E-01
  2.7598662207E+04  6.6751111759E+00  3.6117206284E+00  5.3510674580E-01  4.3564013955E-01  8.1075481620E-01
  2.7695652174E+04  6.7126547027E+00  3.6109618741E+00  5.4085973071E-01  4.3959616834E-01  8.1152961772E-01
  2.7792642140E+04  6.7502982286E+00  3.6102181447E+00  5.4665408923E-01  4.4356843508E-01  8.1230098637E-01
  2.7889632107E+04  6.7880206117E+00  3.6094771585E+00  5.5248997253E-01  4.4755657640E-01  8.1306894058E-01
  2.7986622074E+04  6.8258217419E+00  3.6087388961E+00  5.5836753185E-01  4.5156049601E-01  8.1383349866E-01
  2.8083612040E+04  6.8637015100E+00  3.6080033379E+00  5.6428691840E-01  4.5558009668E-01  8.1459467883E-01
  2.8180602007E+04  6.9017248851E+00  3.6073148408E+00  5.7024828344E-01  4.5961628933E-01  8.1535249918E-01
  2.8277591973E+04  6.9398379191E+00  3.6066361254E+00  5.7625177825E-01  4.6366816360E-01  8.1610697770E-01
  2.8374581940E+04  6.9780298405E+00  3.6059598609E+00  5.8229755411E-01  4.6773545654E-01  8.1685813226E-01
  2.8471571906E+04  7.0163005420E+00  3.6052860303E+00  5.8838576234E-01  4.7181806789E-01  8.1760598063E-01
  2.8568561873E+04  7.0546499169E+00  3.6046146165E+00  5.9451655427E-01  4.7591589659E-01  8.1835054046E-01
  2.8665551839E+04  7.0931299450E+00  3.6039894020E+00  6.0069008124E-01  4.8002985630E-01  8.1909182932E-01
  2.8762541806E+04  7.1316969907E+00  3.6033732366E+00  6.0690649464E-01  4.8415901888E-01  8.1982986464E-01
  2.8859531773E+04  7.1703428426E+00  3.6027592502E+00  6.1316594585E-01  4.8830312488E-01  8.2056466377E-01
  2.8956521739E+04  7.2090673962E+00  3.6021474280E+00  6.1946858628E-01  4.9246207041E-01  8.2129624393E-01
  2.9053511706E+04  7.2478705473E+00  3.6015377550E+00  6.2581456736E-01  4.9663575082E-01  8.2202462226E-01
  2.9150501672E+04  7.2867869818E+00  3.6009691809E+00  6.3220404054E-01  5.0082497872E-01  8.2274981578E-01
  2.9247491639E+04  7.3257916293E+00  3.6004132403E+00  6.3863715729E-01  5.0502901131E-01  8.2347184140E-01
  2.9344481605E+04  7.3648748910E+00  3.5998592257E+00  6.4511406909E-01  5.0924749415E-01  8.2419071596E-01
  2.9441471572E+04  7.4040366648E+00  3.5993071240E+00  6.5163492746E-01  5.1348032003E-01  8.2490645615E-01
  2.9538461538E+04  7.4432768489E+00  3.5987569223E+00  6.5819988391E-01  5.1772738102E-01  8.2561907860E-01
  2.9635451505E+04  7.4826126960E+00  3.5982386570E+00  6.6480908999E-01  5.2198928528E-01  8.2632859982E-01
  2.9732441472E+04  7.5220376685E+00  3.5977407447E+00  6.7146269727E-01  5.2626567763E-01  8.2703503674E-01
  2.9829431438E+04  7.5615409529E+00  3.5972445225E+00  6.7816085732E-01  5.3055601062E-01  8.2773840669E-01
  2.9926421405E+04  7.6011224492E+00  3.5967499792E+00  6.8490372175E-01  5.3486017401E-01  8.2843872646E-01
  3.0023411371E+04  7.6407820581E+00  3.5962571039E+00  6.9170475822E-01  5.3918614808E-01  8.2913601273E-01
  3.0120401338E+04  7.6805264480E+00  3.5957830972E+00  6.9859322153E-01  5.4355177846E-01  8.2983028206E-01
  3.0217391304E+04  7.7203608308E+00  3.5953411104E+00  7.0552776557E-01  5.4793199147E-01  8.3052155088E-01
  3.0314381271E+04  7.7602731646E+00  3.5949005941E+00  7.1250854881E-01  5.5232592659E-01  8.3120983554E-01
  3.0411371237E+04  7.8002633518E+00  3.5944615387E+00  7.1953572976E-01  5.5673346866E-01  8.3189515225E-01
  3.0508361204E+04  7.8403312953E+00  3.5940239348E+00  7.2660946695E-01  5.6115450186E-01  8.3257751714E-01
  3.0605351171E+04  7.8804772669E+00  3.5935884097E+00  7.3372991895E-01  5.6558892742E-01  8.3325694619E-01
  3.0702341137E+04  7.9207275452E+00  3.5932002966E+00  7.4089724436E-01  5.7003790690E-01  8.3393345532E-01
  3.0799331104E+04  7.9610554809E+00  3.5928134494E+00  7.4811160181E-01  5.7450006232E-01  8.3460706030E-01
  3.0896321070E+04  8.0014609786E+00  3.5924278599E+00  7.5537314997E-01  5.7897527593E-01  8.3527777682E-01
  3.0993311037E+04  8.0419439433E+00  3.5920435202E+00  7.6268204752E-01  5.8346342942E-01  8.3594562046E-01
  3.1090301003E+04  8.0825042803E+00  3.5916604222E+00  7.7003845320E-01  5.8796440390E-01  8.3661060669E-01
  3.1187290970E+04  8.1231638634E+00  3.5913047664E+00  7.7744252575E-01  5.9247891017E-01  8.3727275088E-01
