#[MATERIAL DEFINITION FOR MC-GPU: interaction mean free path and sampling data from PENELOPE 2006]
#[MATERIAL NAME]
# Marrow_Bone09_21                                              
#[NOMINAL DENSITY (g/cm^3)]
#   1.57914000
#[NUMBER OF DATA VALUES]
#   1495
#[MEAN FREE PATHS (cm) (ie, average distance between interactions)]
#[Energy (eV)     | Rayleigh        | Compton         | Photoelectric   | TOTAL (+pair prod) (cm) | Rayleigh: max cumul prob F^2]
  5.0000000000E+03  8.3469021461E-01  5.8333880510E+00  4.2061374460E-03  4.1820479911E-03  2.6297966757E-01
  5.0969899666E+03  8.5027659364E-01  5.7779673148E+00  4.4312687542E-03  4.4049339154E-03  2.6787269651E-01
  5.1939799331E+03  8.6596821261E-01  5.7248549572E+00  4.6638208308E-03  4.6350817761E-03  2.7271985064E-01
  5.2909698997E+03  8.8176333577E-01  5.6739149769E+00  4.9038908660E-03  4.8725808976E-03  2.7752258743E-01
  5.3879598662E+03  8.9766017912E-01  5.6250212154E+00  5.1515754365E-03  5.1175197506E-03  2.8228228076E-01
  5.4849498328E+03  9.1365691732E-01  5.5780564914E+00  5.4070309348E-03  5.3700455529E-03  2.8700022098E-01
  5.5819397993E+03  9.2975169031E-01  5.5329118259E+00  5.6710208042E-03  5.6309036466E-03  2.9167769084E-01
  5.6789297659E+03  9.4594260981E-01  5.4894857454E+00  5.9429676854E-03  5.8995165825E-03  2.9631595200E-01
  5.7759197324E+03  9.6222776561E-01  5.4476836564E+00  6.2229672650E-03  6.1759708192E-03  3.0091614653E-01
  5.8729096990E+03  9.7860523165E-01  5.4074172815E+00  6.5111146789E-03  6.4603519976E-03  3.0547936395E-01
  5.9698996656E+03  9.9507307463E-01  5.3686041467E+00  6.8075045247E-03  6.7527449494E-03  3.1000668996E-01
  6.0668896321E+03  1.0116294949E+00  5.3311669661E+00  7.1128841075E-03  7.0538761516E-03  3.1449914366E-01
  6.1638795987E+03  1.0282730685E+00  5.2950329756E+00  7.4270412869E-03  7.3635273818E-03  3.1895764144E-01
  6.2608695652E+03  1.0450027207E+00  5.2601336370E+00  7.7509776749E-03  7.6826732041E-03  3.2338309083E-01
  6.3578595318E+03  1.0618173792E+00  5.2264047108E+00  8.0872144896E-03  8.0137781062E-03  3.2777641371E-01
  6.4548494983E+03  1.0787213214E+00  5.1938141160E+00  8.4325708232E-03  8.3537054049E-03  3.3213838098E-01
  6.5518394649E+03  1.0957148378E+00  5.1623106562E+00  8.7887477579E-03  8.7041133061E-03  3.3646967083E-01
  6.6488294314E+03  1.1127913323E+00  5.1318117808E+00  9.1549645459E-03  9.0642226976E-03  3.4077096631E-01
  6.7458193980E+03  1.1299496074E+00  5.1022672090E+00  9.5307659475E-03  9.4335753159E-03  3.4504295435E-01
  6.8428093645E+03  1.1471884468E+00  5.0736296715E+00  9.9162581715E-03  9.8122635202E-03  3.4928632504E-01
  6.9397993311E+03  1.1645066196E+00  5.0458547012E+00  1.0311547031E-02  1.0200378902E-02  3.5350173596E-01
  7.0367892977E+03  1.1819034995E+00  5.0189032626E+00  1.0717472215E-02  1.0598730432E-02  3.5768967730E-01
  7.1337792642E+03  1.1993966310E+00  4.9928181983E+00  1.1134686979E-02  1.1007944649E-02  3.6185060130E-01
  7.2307692308E+03  1.2169674385E+00  4.9674781138E+00  1.1562133071E-02  1.1426970969E-02  3.6598496757E-01
  7.3277591973E+03  1.2346150423E+00  4.9428473793E+00  1.1999917530E-02  1.1855900400E-02  3.7009324193E-01
  7.4247491639E+03  1.2523385091E+00  4.9188924409E+00  1.2448147033E-02  1.2294823176E-02  3.7417589511E-01
  7.5217391304E+03  1.2701482472E+00  4.8956259393E+00  1.2906927902E-02  1.2743830203E-02  3.7823334050E-01
  7.6187290970E+03  1.2880476663E+00  4.8730302038E+00  1.3376366111E-02  1.3203010944E-02  3.8226588379E-01
  7.7157190635E+03  1.3060216569E+00  4.8510204293E+00  1.3856567286E-02  1.3672451642E-02  3.8627382868E-01
  7.8127090301E+03  1.3240691001E+00  4.8295699035E+00  1.4347636718E-02  1.4152239467E-02  3.9025748642E-01
  7.9096989967E+03  1.3422073702E+00  4.8087171106E+00  1.4849679361E-02  1.4642463605E-02  3.9421717507E-01
  8.0066889632E+03  1.3604312502E+00  4.7884184737E+00  1.5363416844E-02  1.5143808865E-02  3.9815319703E-01
  8.1036789298E+03  1.3787269445E+00  4.7686065088E+00  1.5896941196E-02  1.5664112566E-02  4.0206576661E-01
  8.2006688963E+03  1.3970991998E+00  4.7492787205E+00  1.6442274989E-02  1.6195601013E-02  4.0595508327E-01
  8.2976588629E+03  1.4155726096E+00  4.7304906302E+00  1.6999534110E-02  1.6738372738E-02  4.0982135453E-01
  8.3946488294E+03  1.4341164016E+00  4.7121273703E+00  1.7568834177E-02  1.7292515980E-02  4.1366479515E-01
  8.4916387960E+03  1.4527305149E+00  4.6941746769E+00  1.8150290548E-02  1.7858123248E-02  4.1748560834E-01
  8.5886287625E+03  1.4714536715E+00  4.6767248179E+00  1.8744018316E-02  1.8435294008E-02  4.2128393301E-01
  8.6856187291E+03  1.4902454145E+00  4.6596464986E+00  1.9350132318E-02  1.9024111716E-02  4.2505990029E-01
  8.7826086957E+03  1.5091093563E+00  4.6429377984E+00  1.9968747137E-02  1.9624667320E-02  4.2881364916E-01
  8.8795986622E+03  1.5280815922E+00  4.6266764848E+00  2.0599977106E-02  2.0237058336E-02  4.3254532737E-01
  8.9765886288E+03  1.5471201882E+00  4.6107406480E+00  2.1243936309E-02  2.0861364621E-02  4.3625509681E-01
  9.0735785953E+03  1.5662417640E+00  4.5951605083E+00  2.1904146098E-02  2.1500961177E-02  4.3994303048E-01
  9.1705685619E+03  1.5854617742E+00  4.5799574134E+00  2.2578596035E-02  2.2153886267E-02  4.4360918250E-01
  9.2675585284E+03  1.6047457169E+00  4.5650400158E+00  2.3266346945E-02  2.2819202409E-02  4.4725361561E-01
  9.3645484950E+03  1.6241339373E+00  4.5504868718E+00  2.3967516670E-02  2.3497009532E-02  4.5087640058E-01
  9.4615384615E+03  1.6436007833E+00  4.5362286424E+00  2.4682222831E-02  2.4187390020E-02  4.5447761570E-01
  9.5585284281E+03  1.6631419694E+00  4.5222481017E+00  2.5410582834E-02  2.4890430656E-02  4.5805734626E-01
  9.6555183946E+03  1.6827935800E+00  4.5086056824E+00  2.6152713874E-02  2.5606229058E-02  4.6161568406E-01
  9.7525083612E+03  1.7025053163E+00  4.4951930554E+00  2.6908732930E-02  2.6334857240E-02  4.6515272078E-01
  9.8494983278E+03  1.7223290461E+00  4.4820994875E+00  2.7678756776E-02  2.7076416459E-02  4.6866848605E-01
  9.9464882943E+03  1.7422261463E+00  4.4692428588E+00  2.8462901979E-02  2.7830979921E-02  4.7216298692E-01
  1.0043478261E+04  1.7622119437E+00  4.4566436529E+00  2.9264862836E-02  2.8602054227E-02  4.7563623991E-01
  1.0140468227E+04  1.7822958155E+00  4.4443080376E+00  3.0085849009E-02  2.9390760058E-02  4.7908826926E-01
  1.0237458194E+04  1.8024471048E+00  4.4321779555E+00  3.0921680713E-02  3.0193061095E-02  4.8251910642E-01
  1.0334448161E+04  1.8227192302E+00  4.4203323632E+00  3.1772480884E-02  3.1009063576E-02  4.8592878970E-01
  1.0431438127E+04  1.8430445871E+00  4.4086564590E+00  3.2638372287E-02  3.1838829540E-02  4.8931736385E-01
  1.0528428094E+04  1.8635013759E+00  4.3972649007E+00  3.3519477517E-02  3.2682473951E-02  4.9268487640E-01
  1.0625418060E+04  1.8840146168E+00  4.3860363452E+00  3.4415918999E-02  3.3540052952E-02  4.9603133866E-01
  1.0722408027E+04  1.9046470422E+00  4.3750580967E+00  3.5327818993E-02  3.4411675366E-02  4.9935674528E-01
  1.0819397993E+04  1.9253490855E+00  4.3642513348E+00  3.6255299593E-02  3.5297404198E-02  5.0266109872E-01
  1.0916387960E+04  1.9461608020E+00  4.3536674369E+00  3.7198482729E-02  3.6197338605E-02  5.0594440852E-01
  1.1013377926E+04  1.9670523281E+00  4.3432585222E+00  3.8157490170E-02  3.7111547163E-02  5.0920669097E-01
  1.1110367893E+04  1.9880470048E+00  4.3330512042E+00  3.9132443525E-02  3.8040120913E-02  5.1244796874E-01
  1.1207357860E+04  2.0091284486E+00  4.3230176744E+00  4.0125916081E-02  3.8985446549E-02  5.1566827059E-01
  1.1304347826E+04  2.0303097687E+00  4.3131702596E+00  4.1142150884E-02  3.9951488514E-02  5.1886761754E-01
  1.1401337793E+04  2.0515813129E+00  4.3034910230E+00  4.2175070662E-02  4.0932461523E-02  5.2204600490E-01
  1.1498327759E+04  2.0729529726E+00  4.2939878440E+00  4.3224803014E-02  4.1928452602E-02  5.2520343141E-01
  1.1595317726E+04  2.0944145405E+00  4.2846430774E+00  4.4291475406E-02  4.2939537514E-02  5.2833990253E-01
  1.1692307692E+04  2.1159802484E+00  4.2754693982E+00  4.5375215176E-02  4.3965804107E-02  5.3145543016E-01
  1.1789297659E+04  2.1376314965E+00  4.2664404531E+00  4.6476149535E-02  4.5007321405E-02  5.3455003235E-01
  1.1886287625E+04  2.1593949726E+00  4.2575823996E+00  4.7594405565E-02  4.6064182870E-02  5.3762373300E-01
  1.1983277592E+04  2.1812352834E+00  4.2488517173E+00  4.8730110224E-02  4.7136445414E-02  5.4067655168E-01
  1.2080267559E+04  2.2032002582E+00  4.2402962131E+00  4.9883390342E-02  4.8224214003E-02  5.4370849033E-01
  1.2177257525E+04  2.2252287325E+00  4.2318472472E+00  5.1054372631E-02  4.9327526902E-02  5.4671955488E-01
  1.2274247492E+04  2.2473989463E+00  4.2235819552E+00  5.2243183674E-02  5.0446507699E-02  5.4970975748E-01
  1.2371237458E+04  2.2696143957E+00  4.2153991010E+00  5.3449949937E-02  5.1581168185E-02  5.5267911629E-01
  1.2468227425E+04  2.2919936042E+00  4.2074123823E+00  5.4674797763E-02  5.2731659048E-02  5.5562765524E-01
  1.2565217391E+04  2.3144175014E+00  4.1995025086E+00  5.5926676962E-02  5.3906169945E-02  5.5855540676E-01
  1.2662207358E+04  2.3369867533E+00  4.1917621553E+00  5.7201604545E-02  5.5100997790E-02  5.6146242102E-01
  1.2759197324E+04  2.3596246341E+00  4.1841164044E+00  5.8495496438E-02  5.6312240439E-02  5.6434871162E-01
  1.2856187291E+04  2.3823810646E+00  4.1766080129E+00  5.9808486572E-02  5.7540007943E-02  5.6721428988E-01
  1.2953177258E+04  2.4052374202E+00  4.1692172599E+00  6.1140708790E-02  5.8784360288E-02  5.7005917315E-01
  1.3050167224E+04  2.4281792462E+00  4.1619284433E+00  6.2492296843E-02  6.0045358162E-02  5.7288338455E-01
  1.3147157191E+04  2.4512586195E+00  4.1547840814E+00  6.3863384399E-02  6.1323114188E-02  5.7568695278E-01
  1.3244147157E+04  2.4743853018E+00  4.1477043611E+00  6.5254105033E-02  6.2617625707E-02  5.7846991186E-01
  1.3341137124E+04  2.4976906257E+00  4.1407968630E+00  6.6664592238E-02  6.3929070389E-02  5.8123230091E-01
  1.3438127090E+04  2.5210459031E+00  4.1339521278E+00  6.8094979418E-02  6.5257408960E-02  5.8397416398E-01
  1.3535117057E+04  2.5445354479E+00  4.1272365151E+00  6.9545399892E-02  6.6602780451E-02  5.8669554979E-01
  1.3632107023E+04  2.5681239328E+00  4.1206191852E+00  7.1015986896E-02  6.7965220758E-02  5.8939651156E-01
  1.3729096990E+04  2.5917946969E+00  4.1140848060E+00  7.2507299734E-02  6.9345168791E-02  5.9207710685E-01
  1.3826086957E+04  2.6156210202E+00  4.1076876773E+00  7.4019791781E-02  7.0743048281E-02  5.9473739504E-01
  1.3923076923E+04  2.6394975237E+00  4.1013451110E+00  7.5552885471E-02  7.2158171486E-02  5.9737740824E-01
  1.4020066890E+04  2.6635383801E+00  4.0951405276E+00  7.7106714134E-02  7.3590711097E-02  5.9999717297E-01
  1.4117056856E+04  2.6876584650E+00  4.0890086076E+00  7.8681411014E-02  7.5040645201E-02  6.0259672133E-01
  1.4214046823E+04  2.7118767983E+00  4.0829613913E+00  8.0277109278E-02  7.6508051812E-02  6.0517609075E-01
  1.4311036789E+04  2.7362451543E+00  4.0770337334E+00  8.1893942010E-02  7.7993044790E-02  6.0773532382E-01
  1.4408026756E+04  2.7606656665E+00  4.0711546323E+00  8.3532042215E-02  7.9495578124E-02  6.1027446805E-01
  1.4505016722E+04  2.7852579465E+00  4.0654051319E+00  8.5191542818E-02  8.1015838207E-02  6.1279357570E-01
  1.4602006689E+04  2.8099325844E+00  4.0597218200E+00  8.6872576664E-02  8.2553783569E-02  6.1529270359E-01
  1.4698996656E+04  2.8346967368E+00  4.0541080740E+00  8.8575276523E-02  8.4109475240E-02  6.1777191285E-01
  1.4795986622E+04  2.8596302407E+00  4.0486148701E+00  9.0299775083E-02  8.5683060456E-02  6.2023126881E-01
  1.4892976589E+04  2.8846179965E+00  4.0431649280E+00  9.2046204956E-02  8.7274456462E-02  6.2267083741E-01
  1.4989966555E+04  2.9097579125E+00  4.0378199078E+00  9.3814698680E-02  8.8883831841E-02  6.2509066852E-01
  1.5086956522E+04  2.9350102525E+00  4.0325525375E+00  9.5624118616E-02  9.0527976924E-02  6.2749081043E-01
  1.5183946488E+04  2.9603178176E+00  4.0273257270E+00  9.7458662213E-02  9.2192529225E-02  6.2987131638E-01
  1.5280936455E+04  2.9858335633E+00  4.0222337977E+00  9.9316344127E-02  9.3875830791E-02  6.3223224429E-01
  1.5377926421E+04  3.0114091501E+00  4.0171825734E+00  1.0119730586E-01  9.5577740933E-02  6.3457365658E-01
  1.5474916388E+04  3.0370843814E+00  4.0121961552E+00  1.0310168885E-01  9.7298361300E-02  6.3689561995E-01
  1.5571906355E+04  3.0629288752E+00  4.0073158666E+00  1.0502963452E-01  9.9037839194E-02  6.3919820523E-01
  1.5668896321E+04  3.0888307741E+00  4.0024717618E+00  1.0698128423E-01  1.0079606621E-01  6.4148148715E-01
  1.5765886288E+04  3.1148728076E+00  3.9977137197E+00  1.0895677928E-01  1.0257320747E-01  6.4374554424E-01
  1.5862876254E+04  3.1410456067E+00  3.9930343293E+00  1.1095626096E-01  1.0436929744E-01  6.4599045851E-01
  1.5959866221E+04  3.1672767720E+00  3.9883888902E+00  1.1297987048E-01  1.0618427078E-01  6.4821630704E-01
  1.6056856187E+04  3.1936811007E+00  3.9838458071E+00  1.1502774904E-01  1.0801834794E-01  6.5042315629E-01
  1.6153846154E+04  3.2201850704E+00  3.9793592413E+00  1.1710003776E-01  1.0987145839E-01  6.5261107567E-01
  1.6250836120E+04  3.2467483604E+00  3.9749045405E+00  1.1919687774E-01  1.1174357569E-01  6.5478013871E-01
  1.6347826087E+04  3.2735102615E+00  3.9705636707E+00  1.2131841003E-01  1.1363496986E-01  6.5693042287E-01
  1.6444816054E+04  3.3003481722E+00  3.9662623531E+00  1.2346477564E-01  1.1554547720E-01  6.5906200936E-01
  1.6541806020E+04  3.3272477913E+00  3.9619917958E+00  1.2563611553E-01  1.1747510655E-01  6.6117498297E-01
  1.6638795987E+04  3.3543608940E+00  3.9578401657E+00  1.2783257062E-01  1.1942416195E-01  6.6326943189E-01
  1.6735785953E+04  3.3815354224E+00  3.9537169784E+00  1.3005428179E-01  1.2139241036E-01  6.6534544756E-01
  1.6832775920E+04  3.4087818427E+00  3.9496280786E+00  1.3230138988E-01  1.2337989997E-01  6.6740312381E-01
  1.6929765886E+04  3.4362332168E+00  3.9456496268E+00  1.3457403568E-01  1.2538691358E-01  6.6944254209E-01
  1.7026755853E+04  3.4637469468E+00  3.9416978756E+00  1.3687235993E-01  1.2741321477E-01  6.7146378458E-01
  1.7123745819E+04  3.4913349300E+00  3.9377794397E+00  1.3919650335E-01  1.2945885200E-01  6.7346693980E-01
  1.7220735786E+04  3.5191270741E+00  3.9339677561E+00  1.4154660661E-01  1.3152411391E-01  6.7545209956E-01
  1.7317725753E+04  3.5469824979E+00  3.9301811389E+00  1.4392281033E-01  1.3360874698E-01  6.7741935874E-01
  1.7414715719E+04  3.5749066244E+00  3.9264224763E+00  1.4632525510E-01  1.3571278357E-01  6.7936881516E-01
  1.7511705686E+04  3.6030419365E+00  3.9227715172E+00  1.4875634565E-01  1.3783849516E-01  6.8130056942E-01
  1.7608695652E+04  3.6312414455E+00  3.9191440902E+00  1.5123074488E-01  1.3999802878E-01  6.8321472475E-01
  1.7705685619E+04  3.6595049428E+00  3.9155399154E+00  1.5373232912E-01  1.4217740727E-01  6.8511138683E-01
  1.7802675585E+04  3.6879768077E+00  3.9120389936E+00  1.5626124503E-01  1.4437697889E-01  6.8699176461E-01
  1.7899665552E+04  3.7165225993E+00  3.9085651024E+00  1.5881763924E-01  1.4659646465E-01  6.8885745688E-01
  1.7996655518E+04  3.7451332919E+00  3.9051130436E+00  1.6140165833E-01  1.4883585950E-01  6.9070851967E-01
  1.8093645485E+04  3.7739301149E+00  3.9017492562E+00  1.6401344890E-01  1.5109547139E-01  6.9254500175E-01
  1.8190635452E+04  3.8028242320E+00  3.8984235344E+00  1.6665315749E-01  1.5337510890E-01  6.9436695458E-01
  1.8287625418E+04  3.8317841544E+00  3.8951183099E+00  1.6932093065E-01  1.5567470819E-01  6.9617443221E-01
  1.8384615385E+04  3.8608998477E+00  3.8918823555E+00  1.7201691489E-01  1.5799451025E-01  6.9796749117E-01
  1.8481605351E+04  3.8901442367E+00  3.8886997315E+00  1.7474125668E-01  1.6033446466E-01  6.9974619034E-01
  1.8578595318E+04  3.9194553272E+00  3.8855363483E+00  1.7749410251E-01  1.6269442200E-01  7.0151059087E-01
  1.8675585284E+04  3.9488836844E+00  3.8824193060E+00  1.8027559882E-01  1.6507452556E-01  7.0326075819E-01
  1.8772575251E+04  3.9784801974E+00  3.8793749831E+00  1.8308853896E-01  1.6747714226E-01  7.0499676545E-01
  1.8869565217E+04  4.0081442995E+00  3.8763487172E+00  1.8593185338E-01  1.6990097719E-01  7.0671868817E-01
  1.8966555184E+04  4.0378790074E+00  3.8733420207E+00  1.8880435917E-01  1.7234492553E-01  7.0842660333E-01
  1.9063545151E+04  4.0678294024E+00  3.8704314580E+00  1.9170620378E-01  1.7480941266E-01  7.1012058933E-01
  1.9160535117E+04  4.0978482660E+00  3.8675378364E+00  1.9463753462E-01  1.7729402149E-01  7.1180072586E-01
  1.9257525084E+04  4.1279354070E+00  3.8646609723E+00  1.9759849910E-01  1.7979874938E-01  7.1346709384E-01
  1.9354515050E+04  4.1581888584E+00  3.8618521452E+00  2.0058924461E-01  1.8232389578E-01  7.1511977536E-01
  1.9451505017E+04  4.1885641403E+00  3.8590869287E+00  2.0360991851E-01  1.8486933083E-01  7.1675885111E-01
  1.9548494983E+04  4.2190085736E+00  3.8563374313E+00  2.0666066815E-01  1.8743488831E-01  7.1838438007E-01
  1.9645484950E+04  4.2495553029E+00  3.8536207990E+00  2.0974164086E-01  1.9002066879E-01  7.1999642139E-01
  1.9742474916E+04  4.2802885677E+00  3.8509799670E+00  2.1285298395E-01  1.9262694771E-01  7.2159503811E-01
  1.9839464883E+04  4.3110918495E+00  3.8483538734E+00  2.1599484471E-01  1.9525334089E-01  7.2318029527E-01
  1.9936454849E+04  4.3419649643E+00  3.8457423646E+00  2.1916737041E-01  1.9789983617E-01  7.2475225986E-01
  2.0033444816E+04  4.3730181850E+00  3.8432016051E+00  2.2237781000E-01  2.0057258290E-01  7.2631100068E-01
  2.0130434783E+04  4.4041821170E+00  3.8406951259E+00  2.2563304373E-01  2.0327676420E-01  7.2785658826E-01
  2.0227424749E+04  4.4354167451E+00  3.8382023171E+00  2.2891989630E-01  2.0600136113E-01  7.2938909480E-01
  2.0324414716E+04  4.4667501469E+00  3.8357370942E+00  2.3223852042E-01  2.0874646048E-01  7.3090859404E-01
  2.0421404682E+04  4.4982783396E+00  3.8333464811E+00  2.3558906884E-01  2.1151240624E-01  7.3241516120E-01
  2.0518394649E+04  4.5298781032E+00  3.8309686745E+00  2.3897169426E-01  2.1429873619E-01  7.3390887288E-01
  2.0615384615E+04  4.5615492608E+00  3.8286035458E+00  2.4238654943E-01  2.1710542970E-01  7.3538980702E-01
  2.0712374582E+04  4.5933808452E+00  3.8262937314E+00  2.4583378704E-01  2.1993281040E-01  7.3685804276E-01
  2.0809364548E+04  4.6253500130E+00  3.8240273599E+00  2.4931355981E-01  2.2278078104E-01  7.3831366041E-01
  2.0906354515E+04  4.6573914704E+00  3.8217728601E+00  2.5282602047E-01  2.2564906829E-01  7.3975674135E-01
  2.1003344482E+04  4.6895050444E+00  3.8195301154E+00  2.5637132171E-01  2.2853764592E-01  7.4118736759E-01
  2.1100334448E+04  4.7218330932E+00  3.8173648934E+00  2.5994961624E-01  2.3144707087E-01  7.4260561549E-01
  2.1197324415E+04  4.7542491406E+00  3.8152176710E+00  2.6356105677E-01  2.3437681395E-01  7.4401155802E-01
  2.1294314381E+04  4.7867382207E+00  3.8130814504E+00  2.6720579598E-01  2.3732678515E-01  7.4540526953E-01
  2.1391304348E+04  4.8193274180E+00  3.8109683692E+00  2.7088398659E-01  2.4029706920E-01  7.4678682568E-01
  2.1488294314E+04  4.8521223462E+00  3.8089252307E+00  2.7459578127E-01  2.4328809634E-01  7.4815630336E-01
  2.1585284281E+04  4.8849912412E+00  3.8068923813E+00  2.7834133272E-01  2.4629927819E-01  7.4951378061E-01
  2.1682274247E+04  4.9179339366E+00  3.8048697235E+00  2.8212079363E-01  2.4933057911E-01  7.5085933652E-01
  2.1779264214E+04  4.9510105982E+00  3.8028833212E+00  2.8593431668E-01  2.5238223397E-01  7.5219305123E-01
  2.1876254181E+04  4.9842636153E+00  3.8009508363E+00  2.8978205455E-01  2.5545441012E-01  7.5351500576E-01
  2.1973244147E+04  5.0175913872E+00  3.7990278757E+00  2.9366415991E-01  2.5854661704E-01  7.5482528203E-01
  2.2070234114E+04  5.0509937509E+00  3.7971143509E+00  2.9758078544E-01  2.6165881374E-01  7.5612396273E-01
  2.2167224080E+04  5.0845542686E+00  3.7952452327E+00  3.0153208381E-01  2.6479135548E-01  7.5741113130E-01
  2.2264214047E+04  5.1182714382E+00  3.7934191349E+00  3.0551820769E-01  2.6794420817E-01  7.5868687184E-01
  2.2361204013E+04  5.1520641744E+00  3.7916018479E+00  3.0953947673E-01  2.7111707585E-01  7.5995126906E-01
  2.2458193980E+04  5.1859323178E+00  3.7897932911E+00  3.1362820060E-01  2.7433451562E-01  7.6120440782E-01
  2.2555183946E+04  5.2199724079E+00  3.7880325067E+00  3.1775291945E-01  2.7757264304E-01  7.6244636818E-01
  2.2652173913E+04  5.2541598494E+00  3.7863087824E+00  3.2191379280E-01  2.8083130487E-01  7.6367722770E-01
  2.2749163880E+04  5.2884236932E+00  3.7845932022E+00  3.2611098019E-01  2.8411010208E-01  7.6489706479E-01
  2.2846153846E+04  5.3227637832E+00  3.7828856932E+00  3.3034464115E-01  2.8740898335E-01  7.6610595863E-01
  2.2943143813E+04  5.3572784649E+00  3.7812247048E+00  3.3461493524E-01  2.9072841377E-01  7.6730398912E-01
  2.3040133779E+04  5.3919423508E+00  3.7795995739E+00  3.3892202203E-01  2.9406822504E-01  7.6849123681E-01
  2.3137123746E+04  5.4266834983E+00  3.7779819639E+00  3.4326606110E-01  2.9742798957E-01  7.6966778287E-01
  2.3234113712E+04  5.4615017545E+00  3.7763718086E+00  3.4764721206E-01  3.0080765080E-01  7.7083370898E-01
  2.3331103679E+04  5.4964853274E+00  3.7748024614E+00  3.5206563450E-01  3.0420763845E-01  7.7198909733E-01
  2.3428093645E+04  5.5316318808E+00  3.7732723603E+00  3.5652148806E-01  3.0762789952E-01  7.7313403052E-01
  2.3525083612E+04  5.5668565784E+00  3.7717491969E+00  3.6101493237E-01  3.1106791222E-01  7.7426859155E-01
  2.3622073579E+04  5.6021592706E+00  3.7702329114E+00  3.6554612708E-01  3.1452761486E-01  7.7539286374E-01
  2.3719063545E+04  5.6376052926E+00  3.7687474071E+00  3.7011523185E-01  3.1800732333E-01  7.7650693067E-01
  2.3816053512E+04  5.6732407841E+00  3.7673089725E+00  3.7472240636E-01  3.2150725843E-01  7.7761087589E-01
  2.3913043478E+04  5.7089553258E+00  3.7658769297E+00  3.7936781029E-01  3.2502672455E-01  7.7870477916E-01
  2.4010033445E+04  5.7447487713E+00  3.7644512245E+00  3.8405160334E-01  3.2856565498E-01  7.7978871789E-01
  2.4107023411E+04  5.7806500356E+00  3.7630420967E+00  3.8877394523E-01  3.3212415780E-01  7.8086276994E-01
  2.4204013378E+04  5.8167807806E+00  3.7616921519E+00  3.9353499568E-01  3.3570291704E-01  7.8192701358E-01
  2.4301003344E+04  5.8529915051E+00  3.7603480872E+00  3.9833491444E-01  3.3930096823E-01  7.8298152746E-01
  2.4397993311E+04  5.8892820658E+00  3.7590098536E+00  4.0317386124E-01  3.4291823985E-01  7.8402639054E-01
  2.4494983278E+04  5.9256523203E+00  3.7576774028E+00  4.0805199586E-01  3.4655465902E-01  7.8506168206E-01
  2.4591973244E+04  5.9622629339E+00  3.7564054863E+00  4.1296947807E-01  3.5021118268E-01  7.8608748148E-01
  2.4688963211E+04  5.9989762219E+00  3.7551464277E+00  4.1792646766E-01  3.5388687920E-01  7.8710386846E-01
  2.4785953177E+04  6.0357703016E+00  3.7538927251E+00  4.2292312442E-01  3.5758153455E-01  7.8811092278E-01
  2.4882943144E+04  6.0726450335E+00  3.7526443349E+00  4.2795960818E-01  3.6129507121E-01  7.8910872434E-01
  2.4979933110E+04  6.1096967523E+00  3.7514333401E+00  4.3303607875E-01  3.6502805891E-01  7.9009735308E-01
  2.5076923077E+04  6.1469173602E+00  3.7502564512E+00  4.3817835960E-01  3.6879856581E-01  7.9107688897E-01
  2.5173913043E+04  6.1842197244E+00  3.7490844725E+00  4.4336821803E-01  3.7259277651E-01  7.9204740971E-01
  2.5270903010E+04  6.2216037086E+00  3.7479173646E+00  4.4859919080E-01  3.7640589815E-01  7.9300899001E-01
  2.5367892977E+04  6.2590855363E+00  3.7467607386E+00  4.5387144347E-01  3.8023796534E-01  7.9396170457E-01
  2.5464882943E+04  6.2968070673E+00  3.7456631811E+00  4.5918514162E-01  3.8408993764E-01  7.9490562828E-01
  2.5561872910E+04  6.3346112377E+00  3.7445701157E+00  4.6454045087E-01  3.8796060461E-01  7.9584083615E-01
  2.5658862876E+04  6.3724979138E+00  3.7434815071E+00  4.6993753685E-01  3.9184987907E-01  7.9676740331E-01
  2.5755852843E+04  6.4104669629E+00  3.7423973203E+00  4.7537656522E-01  3.9575767262E-01  7.9768540495E-01
  2.5852842809E+04  6.4486121311E+00  3.7413520138E+00  4.8085770166E-01  3.9968464991E-01  7.9859491628E-01
  2.5949832776E+04  6.4869065043E+00  3.7403351354E+00  4.8638111188E-01  4.0363052764E-01  7.9949601250E-01
  2.6046822742E+04  6.5252841495E+00  3.7393223253E+00  4.9194696161E-01  4.0759469147E-01  8.0038876878E-01
  2.6143812709E+04  6.5637449368E+00  3.7383135524E+00  4.9755541661E-01  4.1157704868E-01  8.0127326022E-01
  2.6240802676E+04  6.6022890433E+00  3.7373089074E+00  5.0320664267E-01  4.1557750813E-01  8.0214956180E-01
  2.6337792642E+04  6.6410612834E+00  3.7363656270E+00  5.0890080558E-01  4.1959727571E-01  8.0301774745E-01
  2.6434782609E+04  6.6799174416E+00  3.7354260506E+00  5.1463807119E-01  4.2363499065E-01  8.0387788714E-01
  2.6531772575E+04  6.7188573905E+00  3.7344901503E+00  5.2041860534E-01  4.2769055614E-01  8.0473005213E-01
  2.6628762542E+04  6.7578810036E+00  3.7335578982E+00  5.2624257391E-01  4.3176387423E-01  8.0557431379E-01
  2.6725752508E+04  6.7970322157E+00  3.7326483488E+00  5.3211014281E-01  4.3585528722E-01  8.0641074347E-01
  2.6822742475E+04  6.8363537265E+00  3.7317795682E+00  5.3802147796E-01  4.3996514290E-01  8.0723941241E-01
  2.6919732441E+04  6.8757595557E+00  3.7309141245E+00  5.4397674531E-01  4.4409248983E-01  8.0806039156E-01
  2.7016722408E+04  6.9152495795E+00  3.7300519930E+00  5.4997611084E-01  4.4823722618E-01  8.0887375049E-01
  2.7113712375E+04  6.9548236744E+00  3.7291931492E+00  5.5601974054E-01  4.5239924907E-01  8.0967955853E-01
  2.7210702341E+04  6.9945501214E+00  3.7283703767E+00  5.6210780044E-01  4.5657923803E-01  8.1047780308E-01
  2.7307692308E+04  7.0344078630E+00  3.7275730911E+00  5.6824045657E-01  4.6077687089E-01  8.1126897255E-01
  2.7404682274E+04  7.0743502081E+00  3.7267788018E+00  5.7441793926E-01  4.6499155655E-01  8.1205551815E-01
  2.7501672241E+04  7.1143770359E+00  3.7259874870E+00  5.8064062506E-01  4.6922332550E-01  8.1283843682E-01
  2.7598662207E+04  7.1544882261E+00  3.7251991252E+00  5.8690841139E-01  4.7347189351E-01  8.1361774702E-01
  2.7695652174E+04  7.1947602066E+00  3.7244552341E+00  5.9322146443E-01  4.7773817302E-01  8.1439346914E-01
  2.7792642140E+04  7.2351401161E+00  3.7237266170E+00  5.9957995039E-01  4.8202137608E-01  8.1516562358E-01
  2.7889632107E+04  7.2756047981E+00  3.7230006800E+00  6.0598403550E-01  4.8632108872E-01  8.1593423065E-01
  2.7986622074E+04  7.3161541349E+00  3.7222774040E+00  6.1243388601E-01  4.9063720004E-01  8.1669931050E-01
  2.8083612040E+04  7.3567880094E+00  3.7215567700E+00  6.1892966819E-01  4.9496959821E-01  8.1746088313E-01
  2.8180602007E+04  7.3975782843E+00  3.7208842585E+00  6.2547154835E-01  4.9931931775E-01  8.1821896843E-01
  2.8277591973E+04  7.4384652951E+00  3.7202216484E+00  6.3205969280E-01  5.0368532205E-01  8.1897358614E-01
  2.8374581940E+04  7.4794371314E+00  3.7195614245E+00  6.3869426788E-01  5.0806731103E-01  8.1972475587E-01
  2.8471571906E+04  7.5204936784E+00  3.7189035702E+00  6.4537543997E-01  5.1246516975E-01  8.2047249709E-01
  2.8568561873E+04  7.5616348218E+00  3.7182480688E+00  6.5210337544E-01  5.1687878242E-01  8.2121682914E-01
  2.8665551839E+04  7.6029189121E+00  3.7176398021E+00  6.5887824071E-01  5.2130919009E-01  8.2195777124E-01
  2.8762541806E+04  7.6442969762E+00  3.7170406898E+00  6.6570020221E-01  5.2575533391E-01  8.2269534248E-01
  2.8859531773E+04  7.6857598027E+00  3.7164436905E+00  6.7256942639E-01  5.3021691778E-01  8.2342956179E-01
  2.8956521739E+04  7.7273072793E+00  3.7158487896E+00  6.7948607974E-01  5.3469382305E-01  8.2416044802E-01
  2.9053511706E+04  7.7689392946E+00  3.7152559727E+00  6.8645032874E-01  5.3918593030E-01  8.2488801986E-01
  2.9150501672E+04  7.8106957829E+00  3.7147051587E+00  6.9346233991E-01  5.4369416880E-01  8.2561229588E-01
  2.9247491639E+04  7.8525478950E+00  3.7141671762E+00  7.0052227981E-01  5.4821768935E-01  8.2633329454E-01
  2.9344481605E+04  7.8944845901E+00  3.7136310523E+00  7.0763031498E-01  5.5275608722E-01  8.2705103415E-01
  2.9441471572E+04  7.9365057588E+00  3.7130967745E+00  7.1478661202E-01  5.5730924043E-01  8.2776553292E-01
  2.9538461538E+04  7.9786112921E+00  3.7125643303E+00  7.2199133753E-01  5.6187702626E-01  8.2847680894E-01
  2.9635451505E+04  8.0208221405E+00  3.7120644968E+00  7.2924465814E-01  5.6646014333E-01  8.2918488015E-01
  2.9732441472E+04  8.0631303853E+00  3.7115854068E+00  7.3654674050E-01  5.7105818511E-01  8.2988976497E-01
  2.9829431438E+04  8.1055229185E+00  3.7111079385E+00  7.4389775128E-01  5.7567052510E-01  8.3059148229E-01
  2.9926421405E+04  8.1479996332E+00  3.7106320813E+00  7.5129785717E-01  5.8029703832E-01  8.3129005042E-01
  3.0023411371E+04  8.1905604228E+00  3.7101578246E+00  7.5876179994E-01  5.8494626144E-01  8.3198548753E-01
  3.0120401338E+04  8.2332139529E+00  3.7097027904E+00  7.6632160159E-01  5.8963731900E-01  8.3267781168E-01
  3.0217391304E+04  8.2759670016E+00  3.7092804527E+00  7.7393200788E-01  5.9434338326E-01  8.3336704076E-01
  3.0314381271E+04  8.3188039826E+00  3.7088595164E+00  7.8159319302E-01  5.9906346805E-01  8.3405319254E-01
  3.0411371237E+04  8.3617247913E+00  3.7084399722E+00  7.8930533128E-01  6.0379744320E-01  8.3473628466E-01
  3.0508361204E+04  8.4047293236E+00  3.7080218111E+00  7.9706859696E-01  6.0854517794E-01  8.3541633463E-01
  3.0605351171E+04  8.4478179228E+00  3.7076056766E+00  8.0488316440E-01  6.1330656109E-01  8.3609335983E-01
  3.0702341137E+04  8.4910224802E+00  3.7072380072E+00  8.1274920796E-01  6.1808292218E-01  8.3676737750E-01
  3.0799331104E+04  8.5343106826E+00  3.7068715337E+00  8.2066690206E-01  6.2287268737E-01  8.3743840478E-01
  3.0896321070E+04  8.5776824279E+00  3.7065062485E+00  8.2863642114E-01  6.2767572403E-01  8.3810645866E-01
  3.0993311037E+04  8.6211376141E+00  3.7061421441E+00  8.3665793966E-01  6.3249189903E-01  8.3877155601E-01
  3.1090301003E+04  8.6646761400E+00  3.7057792128E+00  8.4473163216E-01  6.3732107869E-01  8.3943371358E-01
  3.1187290970E+04  8.7083233643E+00  3.7054442924E+00  8.5285767316E-01  6.4216407353E-01  8.4009294800E-01
