#[MATERIAL DEFINITION FOR MC-GPU: interaction mean free path and sampling data from PENELOPE 2006]
#[MATERIAL NAME]
# Marrow_Bone04_16                                              
#[NOMINAL DENSITY (g/cm^3)]
#   1.28295000
#[NUMBER OF DATA VALUES]
#   1495
#[MEAN FREE PATHS (cm) (ie, average distance between interactions)]
#[Energy (eV)     | Rayleigh        | Compton         | Photoelectric   | TOTAL (+pair prod) (cm) | Rayleigh: max cumul prob F^2]
  5.0000000000E+03  1.2524333795E+00  6.5087384349E+00  7.7346589131E-03  7.6781168400E-03  2.8026969004E-01
  5.0969899666E+03  1.2770309996E+00  6.4533080893E+00  8.1545406595E-03  8.0926387052E-03  2.8516179622E-01
  5.1939799331E+03  1.3018042988E+00  6.4001934098E+00  8.5885453064E-03  8.5208950553E-03  2.9000042139E-01
  5.2909698997E+03  1.3267497979E+00  6.3492572638E+00  9.0368656720E-03  8.9630586849E-03  2.9478766089E-01
  5.3879598662E+03  1.3518639545E+00  6.3003724001E+00  9.4996934208E-03  9.4193005732E-03  2.9952552107E-01
  5.4849498328E+03  1.3771431758E+00  6.2534205893E+00  9.9773430061E-03  9.8899116515E-03  3.0421590165E-01
  5.5819397993E+03  1.4025838302E+00  6.2082918526E+00  1.0471375627E-02  1.0376406078E-02  3.0886065313E-01
  5.6789297659E+03  1.4281822597E+00  6.1648837693E+00  1.0980602373E-02  1.0877595144E-02  3.1346157210E-01
  5.7759197324E+03  1.4539347912E+00  6.1231008535E+00  1.1505213674E-02  1.1393645486E-02  3.1802031991E-01
  5.8729096990E+03  1.4798377486E+00  6.0828539919E+00  1.2045398921E-02  1.1924721963E-02  3.2253847562E-01
  5.9698996656E+03  1.5058874674E+00  6.0440599332E+00  1.2601346489E-02  1.2470987661E-02  3.2701758527E-01
  6.0668896321E+03  1.5320805170E+00  6.0066406478E+00  1.3174614057E-02  1.3033945112E-02  3.3145910499E-01
  6.1638795987E+03  1.5584140822E+00  5.9705226238E+00  1.3764748504E-02  1.3613125685E-02  3.3586436323E-01
  6.2608695652E+03  1.5848859248E+00  5.9356365818E+00  1.4373319997E-02  1.4210039214E-02  3.4023465644E-01
  6.3578595318E+03  1.6114938458E+00  5.9019176128E+00  1.5004555949E-02  1.4828786201E-02  3.4457127988E-01
  6.4548494983E+03  1.6382428502E+00  5.8693344101E+00  1.5653215534E-02  1.5464214532E-02  3.4887534635E-01
  6.5518394649E+03  1.6651324582E+00  5.8378352445E+00  1.6322163940E-02  1.6119091608E-02  3.5314784765E-01
  6.6488294314E+03  1.6921530592E+00  5.8073355470E+00  1.7010139339E-02  1.6792152969E-02  3.5738976589E-01
  6.7458193980E+03  1.7193023679E+00  5.7777845902E+00  1.7716417184E-02  1.7482661390E-02  3.6160207382E-01
  6.8428093645E+03  1.7465781117E+00  5.7491347329E+00  1.8441206962E-02  1.8190790228E-02  3.6578573523E-01
  6.9397993311E+03  1.7739780377E+00  5.7213412100E+00  1.9184717429E-02  1.8916711078E-02  3.6994166691E-01
  7.0367892977E+03  1.8015007157E+00  5.6943648524E+00  1.9948652015E-02  1.9662046637E-02  3.7407058188E-01
  7.1337792642E+03  1.8291681499E+00  5.6682508484E+00  2.0734336846E-02  2.0428051525E-02  3.7817313477E-01
  7.2307692308E+03  1.8569558579E+00  5.6428748279E+00  2.1539611363E-02  2.1212586367E-02  3.8224997990E-01
  7.3277591973E+03  1.8848623706E+00  5.6182012170E+00  2.2364687305E-02  2.2015820696E-02  3.8630177070E-01
  7.4247491639E+03  1.9128861747E+00  5.5941965557E+00  2.3209775746E-02  2.2837922235E-02  3.9032915911E-01
  7.5217391304E+03  1.9410402082E+00  5.5708746194E+00  2.4075087104E-02  2.3679059862E-02  3.9433272155E-01
  7.6187290970E+03  1.9693283252E+00  5.5482177347E+00  2.4960831152E-02  2.4539399217E-02  3.9831289535E-01
  7.7157190635E+03  1.9977309524E+00  5.5261398123E+00  2.5867217024E-02  2.5419099094E-02  4.0227010833E-01
  7.8127090301E+03  2.0262464144E+00  5.5046143426E+00  2.6794453227E-02  2.6318319964E-02  4.0620479194E-01
  7.9096989967E+03  2.0548962976E+00  5.4836809142E+00  2.7742747654E-02  2.7237226132E-02  4.1011738076E-01
  8.0066889632E+03  2.0836735643E+00  5.4632953699E+00  2.8713392079E-02  2.8177018062E-02  4.1400828515E-01
  8.1036789298E+03  2.1125607153E+00  5.4433898523E+00  2.9720642376E-02  2.9151360331E-02  4.1787780041E-01
  8.2006688963E+03  2.1415635635E+00  5.4239623953E+00  3.0750508857E-02  3.0146721680E-02  4.2172619811E-01
  8.2976588629E+03  2.1707130716E+00  5.4050695042E+00  3.1803219626E-02  3.1163281379E-02  4.2555375574E-01
  8.3946488294E+03  2.1999705034E+00  5.3865955747E+00  3.2879002303E-02  3.2201197457E-02  4.2936075608E-01
  8.4916387960E+03  2.2293356826E+00  5.3685267512E+00  3.3978087791E-02  3.3260639887E-02  4.3314746360E-01
  8.5886287625E+03  2.2588575691E+00  5.3509563469E+00  3.5100754284E-02  3.4341838181E-02  4.3691405752E-01
  8.6856187291E+03  2.2884850081E+00  5.3337523551E+00  3.6247175906E-02  3.5444889648E-02  4.4066070353E-01
  8.7826086957E+03  2.3182224718E+00  5.3169132884E+00  3.7417578474E-02  3.6569956520E-02  4.4438757416E-01
  8.8795986622E+03  2.3481158065E+00  5.3005175190E+00  3.8612187348E-02  3.7717214074E-02  4.4809484768E-01
  8.9765886288E+03  2.3781117376E+00  5.2844427772E+00  3.9831227439E-02  3.8886801229E-02  4.5178267058E-01
  9.0735785953E+03  2.4082313317E+00  5.2687197334E+00  4.1081126967E-02  4.0084787335E-02  4.5545113551E-01
  9.1705685619E+03  2.4384944034E+00  5.2533700685E+00  4.2358248644E-02  4.1307641712E-02  4.5910033750E-01
  9.2675585284E+03  2.4688568761E+00  5.2383024599E+00  4.3660900933E-02  4.2553671598E-02  4.6273037866E-01
  9.3645484950E+03  2.4993704112E+00  5.2235960955E+00  4.4989315956E-02  4.3823054367E-02  4.6634135932E-01
  9.4615384615E+03  2.5300022469E+00  5.2091816734E+00  4.6343725440E-02  4.5115931108E-02  4.6993333356E-01
  9.5585284281E+03  2.5607467876E+00  5.1950421654E+00  4.7724360727E-02  4.6432451492E-02  4.7350634302E-01
  9.6555183946E+03  2.5916506334E+00  5.1812386036E+00  4.9131452773E-02  4.7772787063E-02  4.7706043677E-01
  9.7525083612E+03  2.6226488997E+00  5.1676623451E+00  5.0565232155E-02  4.9137056364E-02  4.8059567528E-01
  9.8494983278E+03  2.6538086379E+00  5.1544034211E+00  5.2025929075E-02  5.0525437648E-02  4.8411211104E-01
  9.9464882943E+03  2.6850799587E+00  5.1413794688E+00  5.3513773361E-02  5.1938051065E-02  4.8760973024E-01
  1.0043478261E+04  2.7164826701E+00  5.1286113224E+00  5.5035516696E-02  5.3381184654E-02  4.9108851997E-01
  1.0140468227E+04  2.7480292775E+00  5.1161055436E+00  5.6593388352E-02  5.4856841152E-02  4.9454847529E-01
  1.0237458194E+04  2.7796797251E+00  5.1038037986E+00  5.8179789351E-02  5.6357760271E-02  4.9798959882E-01
  1.0334448161E+04  2.8115044390E+00  5.0917862707E+00  5.9794961645E-02  5.7884127041E-02  5.0141190029E-01
  1.0431438127E+04  2.8434145612E+00  5.0799370708E+00  6.1439146884E-02  5.9436034048E-02  5.0481539623E-01
  1.0528428094E+04  2.8755136531E+00  5.0683727451E+00  6.3112586417E-02  6.1013683891E-02  5.0820010529E-01
  1.0625418060E+04  2.9077025778E+00  5.0569704587E+00  6.4815521294E-02  6.2617155748E-02  5.1156599933E-01
  1.0722408027E+04  2.9400648981E+00  5.0458192236E+00  6.6548192272E-02  6.4246638774E-02  5.1491302949E-01
  1.0819397993E+04  2.9725347585E+00  5.0348391283E+00  6.8310839814E-02  6.5902225448E-02  5.1824115555E-01
  1.0916387960E+04  3.0051658630E+00  5.0240827889E+00  7.0103704095E-02  6.7584083958E-02  5.2155034500E-01
  1.1013377926E+04  3.0379184261E+00  5.0135016488E+00  7.1927025002E-02  6.9292317546E-02  5.2484057264E-01
  1.1110367893E+04  3.0708239298E+00  5.0031231284E+00  7.3781042140E-02  7.1027076518E-02  5.2811182025E-01
  1.1207357860E+04  3.1038605810E+00  4.9929190810E+00  7.5670445153E-02  7.2792589252E-02  5.3136407630E-01
  1.1304347826E+04  3.1370461553E+00  4.9829023337E+00  7.7602960547E-02  7.4595892905E-02  5.3459731885E-01
  1.1401337793E+04  3.1703678843E+00  4.9730547869E+00  7.9567580144E-02  7.6426672443E-02  5.3781149474E-01
  1.1498327759E+04  3.2038392543E+00  4.9633847193E+00  8.1564554897E-02  7.8285065741E-02  5.4100655478E-01
  1.1595317726E+04  3.2374466397E+00  4.9538742575E+00  8.3594135536E-02  8.0171186265E-02  5.4418245728E-01
  1.1692307692E+04  3.2712095812E+00  4.9445366567E+00  8.5656572565E-02  8.2085172880E-02  5.4733916774E-01
  1.1789297659E+04  3.3051027758E+00  4.9353449558E+00  8.7752116267E-02  8.4027123592E-02  5.5047665856E-01
  1.1886287625E+04  3.3391631128E+00  4.9263264242E+00  8.9881016706E-02  8.5997188680E-02  5.5359490875E-01
  1.1983277592E+04  3.3733418286E+00  4.9174361738E+00  9.2043523729E-02  8.7995438928E-02  5.5669389169E-01
  1.2080267559E+04  3.4077054303E+00  4.9087240700E+00  9.4239886965E-02  9.0022048977E-02  5.5977356038E-01
  1.2177257525E+04  3.4421689236E+00  4.9001189022E+00  9.6470355829E-02  9.2077047948E-02  5.6283387267E-01
  1.2274247492E+04  3.4768417016E+00  4.8917012864E+00  9.8735179524E-02  9.4160650626E-02  5.6587479355E-01
  1.2371237458E+04  3.5115887577E+00  4.8833657110E+00  1.0103460704E-01  9.6272827035E-02  5.6889629480E-01
  1.2468227425E+04  3.5465766742E+00  4.8752313082E+00  1.0336888717E-01  9.8413851060E-02  5.7189835484E-01
  1.2565217391E+04  3.5816380263E+00  4.8671733308E+00  1.0575402306E-01  1.0059790399E-01  5.7488096311E-01
  1.2662207358E+04  3.6169150160E+00  4.8592892028E+00  1.0818293717E-01  1.0281854427E-01  5.7784413829E-01
  1.2759197324E+04  3.6522992002E+00  4.8515003781E+00  1.1064836319E-01  1.0506893219E-01  5.8078784728E-01
  1.2856187291E+04  3.6878616076E+00  4.8438520651E+00  1.1315056403E-01  1.0734924812E-01  5.8371205172E-01
  1.2953177258E+04  3.7235757626E+00  4.8363236145E+00  1.1568980248E-01  1.0965956113E-01  5.8661672028E-01
  1.3050167224E+04  3.7594213682E+00  4.8288986861E+00  1.1826634116E-01  1.1199994166E-01  5.8950182846E-01
  1.3147157191E+04  3.7954727351E+00  4.8216223253E+00  1.2088044254E-01  1.1437057482E-01  5.9236735831E-01
  1.3244147157E+04  3.8316010249E+00  4.8144102911E+00  1.2353236895E-01  1.1677138917E-01  5.9521329825E-01
  1.3341137124E+04  3.8679945606E+00  4.8073767103E+00  1.2622238259E-01  1.1920271448E-01  5.9803964280E-01
  1.3438127090E+04  3.9044687599E+00  4.8004056726E+00  1.2895074550E-01  1.2166439630E-01  6.0084639240E-01
  1.3535117057E+04  3.9411450703E+00  4.7935678167E+00  1.3171771959E-01  1.2415667805E-01  6.0363355319E-01
  1.3632107023E+04  3.9779725797E+00  4.7868304675E+00  1.3452356662E-01  1.2667957195E-01  6.0640113676E-01
  1.3729096990E+04  4.0149274592E+00  4.7801774853E+00  1.3736973453E-01  1.2923416959E-01  6.0914916004E-01
  1.3826086957E+04  4.0521157281E+00  4.7736668735E+00  1.4025737808E-01  1.3182148270E-01  6.1187763667E-01
  1.3923076923E+04  4.0893848766E+00  4.7672105491E+00  1.4318478139E-01  1.3443960498E-01  6.1458655515E-01
  1.4020066890E+04  4.1269007824E+00  4.7608978104E+00  1.4615220697E-01  1.3708885504E-01  6.1727590352E-01
  1.4117056856E+04  4.1645397381E+00  4.7546589018E+00  1.4915991714E-01  1.3976911261E-01  6.1994567627E-01
  1.4214046823E+04  4.2023296279E+00  4.7485068757E+00  1.5220817412E-01  1.4248048256E-01  6.2259587412E-01
  1.4311036789E+04  4.2403459767E+00  4.7424792137E+00  1.5529723998E-01  1.4522315036E-01  6.2522650379E-01
  1.4408026756E+04  4.2784459772E+00  4.7364998394E+00  1.5842737667E-01  1.4799693961E-01  6.2783757781E-01
  1.4505016722E+04  4.3168047964E+00  4.7306560065E+00  1.6159884600E-01  1.5080219997E-01  6.3042911431E-01
  1.4602006689E+04  4.3552914699E+00  4.7248795973E+00  1.6481190964E-01  1.5363876409E-01  6.3300113682E-01
  1.4698996656E+04  4.3939166528E+00  4.7191743833E+00  1.6806682915E-01  1.5650669695E-01  6.3555367406E-01
  1.4795986622E+04  4.4327977060E+00  4.7135954425E+00  1.7136386594E-01  1.5940625913E-01  6.3808675976E-01
  1.4892976589E+04  4.4717653996E+00  4.7080594842E+00  1.7470328130E-01  1.6233718784E-01  6.4060042883E-01
  1.4989966555E+04  4.5109641937E+00  4.7026332759E+00  1.7808533641E-01  1.6529979241E-01  6.4309469990E-01
  1.5086956522E+04  4.5503354443E+00  4.6972874039E+00  1.8154373102E-01  1.6832275126E-01  6.4556959105E-01
  1.5183946488E+04  4.5897947232E+00  4.6919818081E+00  1.8505029345E-01  1.7138135242E-01  6.4802512611E-01
  1.5280936455E+04  4.6295688999E+00  4.6868188381E+00  1.8860150531E-01  1.7447281941E-01  6.5046133439E-01
  1.5377926421E+04  4.6694379310E+00  4.6816964517E+00  1.9219764443E-01  1.7759674835E-01  6.5287825048E-01
  1.5474916388E+04  4.7094612282E+00  4.6766409022E+00  1.9583898858E-01  1.8075329101E-01  6.5527591404E-01
  1.5571906355E+04  4.7497426793E+00  4.6716971743E+00  1.9952581544E-01  1.8394270404E-01  6.5765436960E-01
  1.5668896321E+04  4.7901153450E+00  4.6667893206E+00  2.0325840264E-01  1.8716465488E-01  6.6001366643E-01
  1.5765886288E+04  4.8307034282E+00  4.6619717190E+00  2.0703702776E-01  1.9041944227E-01  6.6235385825E-01
  1.5862876254E+04  4.8714928600E+00  4.6572363747E+00  2.1086196829E-01  1.9370706216E-01  6.6467500308E-01
  1.5959866221E+04  4.9123749213E+00  4.6525346615E+00  2.1473350166E-01  1.9702727934E-01  6.6697715440E-01
  1.6056856187E+04  4.9535230375E+00  4.6479412924E+00  2.1865190523E-01  2.0038052221E-01  6.6926035556E-01
  1.6153846154E+04  4.9948261315E+00  4.6434063115E+00  2.2261745632E-01  2.0376654179E-01  6.7152465359E-01
  1.6250836120E+04  5.0362232752E+00  4.6389028629E+00  2.2663043216E-01  2.0718519162E-01  6.7377010037E-01
  1.6347826087E+04  5.0779262213E+00  4.6345206494E+00  2.3069110992E-01  2.1063701787E-01  6.7599675236E-01
  1.6444816054E+04  5.1197485852E+00  4.6301784993E+00  2.3479976671E-01  2.1412155189E-01  6.7820467047E-01
  1.6541806020E+04  5.1616686288E+00  4.6258668447E+00  2.3895667958E-01  2.1763872871E-01  6.8039391985E-01
  1.6638795987E+04  5.2039185487E+00  4.6216823702E+00  2.4316212551E-01  2.2118917695E-01  6.8256456970E-01
  1.6735785953E+04  5.2462657165E+00  4.6175259692E+00  2.4741638142E-01  2.2477226236E-01  6.8471669312E-01
  1.6832775920E+04  5.2887262407E+00  4.6134041039E+00  2.5171972416E-01  2.2838801223E-01  6.8685036636E-01
  1.6929765886E+04  5.3315049941E+00  4.6094004708E+00  2.5607243054E-01  2.3203700797E-01  6.8896565532E-01
  1.7026755853E+04  5.3743824267E+00  4.6054231537E+00  2.6047477728E-01  2.3571860420E-01  6.9106262518E-01
  1.7123745819E+04  5.4173769711E+00  4.6014794729E+00  2.6492704106E-01  2.3943282903E-01  6.9314134732E-01
  1.7220735786E+04  5.4606899397E+00  4.5976502949E+00  2.6942949848E-01  2.4318028063E-01  6.9520189698E-01
  1.7317725753E+04  5.5041030248E+00  4.5938457826E+00  2.7398242609E-01  2.4696027007E-01  6.9724435316E-01
  1.7414715719E+04  5.5476246822E+00  4.5900691600E+00  2.7858610037E-01  2.5077278745E-01  6.9926879839E-01
  1.7511705686E+04  5.5914771222E+00  4.5864084107E+00  2.8324512496E-01  2.5462202328E-01  7.0127531859E-01
  1.7608695652E+04  5.6354311213E+00  4.5827707763E+00  2.8798753462E-01  2.5852954710E-01  7.0326400291E-01
  1.7705685619E+04  5.6794863533E+00  4.5791559847E+00  2.9278252604E-01  2.6247011974E-01  7.0523494354E-01
  1.7802675585E+04  5.7238690816E+00  4.5756524618E+00  2.9763038759E-01  2.6644448403E-01  7.0718909576E-01
  1.7899665552E+04  5.7683686342E+00  4.5721760525E+00  3.0253140761E-01  2.7045188179E-01  7.0912771997E-01
  1.7996655518E+04  5.8129708672E+00  4.5687210492E+00  3.0748587442E-01  2.7449221078E-01  7.1105087175E-01
  1.8093645485E+04  5.8578665262E+00  4.5653610269E+00  3.1249407633E-01  2.7856611971E-01  7.1295860198E-01
  1.8190635452E+04  5.9029158511E+00  4.5620404685E+00  3.1755630160E-01  2.8267305900E-01  7.1485096459E-01
  1.8287625418E+04  5.9480693008E+00  4.5587399639E+00  3.2267283848E-01  2.8681278563E-01  7.1672801640E-01
  1.8384615385E+04  5.9934690044E+00  4.5555136294E+00  3.2784397521E-01  2.9098578973E-01  7.1858981699E-01
  1.8481605351E+04  6.0390722051E+00  4.5523438402E+00  3.3306999998E-01  2.9519186010E-01  7.2043642863E-01
  1.8578595318E+04  6.0847809714E+00  4.5491928306E+00  3.3835120095E-01  2.9943054801E-01  7.2226791613E-01
  1.8675585284E+04  6.1306755190E+00  4.5460907368E+00  3.4368786630E-01  3.0370211009E-01  7.2408434672E-01
  1.8772575251E+04  6.1768365879E+00  4.5430669073E+00  3.4908499474E-01  3.0801049132E-01  7.2588578996E-01
  1.8869565217E+04  6.2231046598E+00  4.5400606562E+00  3.5454071275E-01  3.1235325115E-01  7.2767231762E-01
  1.8966555184E+04  6.2694845456E+00  4.5370736963E+00  3.6005294330E-01  3.1672847831E-01  7.2944400359E-01
  1.9063545151E+04  6.3162073642E+00  4.5341912712E+00  3.6562197645E-01  3.2113711238E-01  7.3120092374E-01
  1.9160535117E+04  6.3630386199E+00  4.5313252911E+00  3.7124810226E-01  3.2557805642E-01  7.3294315587E-01
  1.9257525084E+04  6.4099780135E+00  4.5284755799E+00  3.7693161075E-01  3.3005121635E-01  7.3467077957E-01
  1.9354515050E+04  6.4571823824E+00  4.5256993367E+00  3.8267279193E-01  3.3455723025E-01  7.3638387615E-01
  1.9451505017E+04  6.5045805895E+00  4.5229693727E+00  3.8847193579E-01  3.3909569579E-01  7.3808252805E-01
  1.9548494983E+04  6.5520883697E+00  4.5202546216E+00  3.9432933230E-01  3.4366612347E-01  7.3976680810E-01
  1.9645484950E+04  6.5997589847E+00  4.5175742590E+00  4.0024527142E-01  3.4826867146E-01  7.4143678005E-01
  1.9742474916E+04  6.6477278006E+00  4.5149762732E+00  4.0622004307E-01  3.5290392220E-01  7.4309250961E-01
  1.9839464883E+04  6.6958076213E+00  4.5123925025E+00  4.1225393717E-01  3.5757085717E-01  7.4473406493E-01
  1.9936454849E+04  6.7439981590E+00  4.5098228003E+00  4.1834724362E-01  3.6226936209E-01  7.4636151638E-01
  2.0033444816E+04  6.7924772054E+00  4.5073300237E+00  4.2451305934E-01  3.6700982960E-01  7.4797493654E-01
  2.0130434783E+04  6.8411329059E+00  4.5048734147E+00  4.3076382383E-01  3.7180054252E-01  7.4957440003E-01
  2.0227424749E+04  6.8899007586E+00  4.5024299427E+00  4.3707580519E-01  3.7662302405E-01  7.5115998341E-01
  2.0324414716E+04  6.9388259375E+00  4.5000152151E+00  4.4344930352E-01  3.8147739893E-01  7.5273176513E-01
  2.0421404682E+04  6.9880629148E+00  4.4976819267E+00  4.4988461896E-01  3.8636441497E-01  7.5428982533E-01
  2.0518394649E+04  7.0374134937E+00  4.4953608951E+00  4.5638205162E-01  3.9128286664E-01  7.5583424584E-01
  2.0615384615E+04  7.0868773975E+00  4.4930519985E+00  4.6294190166E-01  3.9623261994E-01  7.5736511004E-01
  2.0712374582E+04  7.1365972631E+00  4.4908030516E+00  4.6956446923E-01  4.0121437212E-01  7.5888250276E-01
  2.0809364548E+04  7.1865365168E+00  4.4886007824E+00  4.7625005450E-01  4.0622780431E-01  7.6038651020E-01
  2.0906354515E+04  7.2365905687E+00  4.4864098264E+00  4.8299895764E-01  4.1127217425E-01  7.6187721986E-01
  2.1003344482E+04  7.2867591483E+00  4.4842300733E+00  4.8981147884E-01  4.1634733696E-01  7.6335472392E-01
  2.1100334448E+04  7.3372693927E+00  4.4821353341E+00  4.9668791830E-01  4.2145454843E-01  7.6481913302E-01
  2.1197324415E+04  7.3879195335E+00  4.4800588605E+00  5.0362857622E-01  4.2659245548E-01  7.6627052996E-01
  2.1294314381E+04  7.4386856993E+00  4.4779928217E+00  5.1063375282E-01  4.3176076176E-01  7.6770899326E-01
  2.1391304348E+04  7.4896109324E+00  4.4759508664E+00  5.1770374833E-01  4.3695959020E-01  7.6913460298E-01
  2.1488294314E+04  7.5408630723E+00  4.4739855788E+00  5.2483886299E-01  4.4218988949E-01  7.7054744070E-01
  2.1585284281E+04  7.5922327540E+00  4.4720299989E+00  5.3203939704E-01  4.4745017345E-01  7.7194758932E-01
  2.1682274247E+04  7.6437197169E+00  4.4700840355E+00  5.3930565075E-01  4.5274027923E-01  7.7333513307E-01
  2.1779264214E+04  7.6954191916E+00  4.4681770009E+00  5.4663792438E-01  4.5806068856E-01  7.7471015738E-01
  2.1876254181E+04  7.7473982859E+00  4.4663287740E+00  5.5403651820E-01  4.6341172168E-01  7.7607274879E-01
  2.1973244147E+04  7.7994962016E+00  4.4644894827E+00  5.6150173250E-01  4.6879213471E-01  7.7742299487E-01
  2.2070234114E+04  7.8517126842E+00  4.4626590446E+00  5.6903386759E-01  4.7420175505E-01  7.7876098418E-01
  2.2167224080E+04  7.9041794756E+00  4.4608768170E+00  5.7663322376E-01  4.7964134948E-01  7.8008680613E-01
  2.2264214047E+04  7.9568942247E+00  4.4591412680E+00  5.8430010133E-01  4.8511076147E-01  7.8140055098E-01
  2.2361204013E+04  8.0097291042E+00  4.4574139341E+00  5.9203511155E-01  4.9060912643E-01  7.8270230970E-01
  2.2458193980E+04  8.0626838650E+00  4.4556947409E+00  5.9989843331E-01  4.9617722361E-01  7.8399217345E-01
  2.2555183946E+04  8.1159101187E+00  4.4540276634E+00  6.0783151421E-01  5.0177542876E-01  7.8527022775E-01
  2.2652173913E+04  8.1693692564E+00  4.4524006669E+00  6.1583466767E-01  5.0740330439E-01  7.8653655499E-01
  2.2749163880E+04  8.2229498622E+00  4.4507812123E+00  6.2390820717E-01  5.1305983603E-01  7.8779123861E-01
  2.2846153846E+04  8.2766516925E+00  4.4491692328E+00  6.3205244621E-01  5.1874483037E-01  7.8903436300E-01
  2.2943143813E+04  8.3306286032E+00  4.4476080730E+00  6.4026769835E-01  5.2445930599E-01  7.9026601345E-01
  2.3040133779E+04  8.3848408935E+00  4.4460857415E+00  6.4855427718E-01  5.3020279468E-01  7.9148627606E-01
  2.3137123746E+04  8.4391760179E+00  4.4445703228E+00  6.5691249634E-01  5.3597422267E-01  7.9269523770E-01
  2.3234113712E+04  8.4936337383E+00  4.4430617567E+00  6.6534266950E-01  5.4177338799E-01  7.9389298589E-01
  2.3331103679E+04  8.5483515283E+00  4.4415976762E+00  6.7384511039E-01  5.4760122439E-01  7.9507960878E-01
  2.3428093645E+04  8.6033257614E+00  4.4401763431E+00  6.8242013275E-01  5.5345753764E-01  7.9625519506E-01
  2.3525083612E+04  8.6584242231E+00  4.4387613340E+00  6.9106805039E-01  5.5934104220E-01  7.9741983390E-01
  2.3622073579E+04  8.7136466802E+00  4.4373525949E+00  6.9978917715E-01  5.6525152803E-01  7.9857361491E-01
  2.3719063545E+04  8.7690945769E+00  4.4359771225E+00  7.0858382691E-01  5.7118966273E-01  7.9971662805E-01
  2.3816053512E+04  8.8248395664E+00  4.4346533256E+00  7.1745231359E-01  5.7715589172E-01  8.0084896329E-01
  2.3913043478E+04  8.8807102068E+00  4.4333353015E+00  7.2639495115E-01  5.8314853497E-01  8.0197070604E-01
  2.4010033445E+04  8.9367062700E+00  4.4320230018E+00  7.3541205359E-01  5.8916737491E-01  8.0308193885E-01
  2.4107023411E+04  8.9928724839E+00  4.4307280080E+00  7.4450393494E-01  5.9521259870E-01  8.0418274478E-01
  2.4204013378E+04  9.0493970630E+00  4.4294984754E+00  7.5367090929E-01  6.0128572277E-01  8.0527320748E-01
  2.4301003344E+04  9.1060487430E+00  4.4282741991E+00  7.6291329075E-01  6.0738445722E-01  8.0635341109E-01
  2.4397993311E+04  9.1628273007E+00  4.4270551357E+00  7.7223139348E-01  6.1350857754E-01  8.0742344016E-01
  2.4494983278E+04  9.2197325143E+00  4.4258412425E+00  7.8162553168E-01  6.1965785729E-01  8.0848337965E-01
  2.4591973244E+04  9.2770120206E+00  4.4246944462E+00  7.9109601957E-01  6.2583443589E-01  8.0953331483E-01
  2.4688963211E+04  9.3344536170E+00  4.4235608546E+00  8.0064317142E-01  6.3203611313E-01  8.1057333122E-01
  2.4785953177E+04  9.3920235735E+00  4.4224319963E+00  8.1026730156E-01  6.3826234145E-01  8.1160351459E-01
  2.4882943144E+04  9.4497216730E+00  4.4213078330E+00  8.1996872431E-01  6.4451288820E-01  8.1262395086E-01
  2.4979933110E+04  9.5076961372E+00  4.4202246832E+00  8.2974775408E-01  6.5078900256E-01  8.1363472608E-01
  2.5076923077E+04  9.5659345183E+00  4.4191788433E+00  8.3965209961E-01  6.5711940001E-01  8.1463592633E-01
  2.5173913043E+04  9.6243027524E+00  4.4181372867E+00  8.4964811863E-01  6.6348143223E-01  8.1562763507E-01
  2.5270903010E+04  9.6828006270E+00  4.4170999793E+00  8.5972389577E-01  6.6986732773E-01  8.1660993199E-01
  2.5367892977E+04  9.7414533916E+00  4.4160732823E+00  8.6987975633E-01  6.7627711596E-01  8.1758289687E-01
  2.5464882943E+04  9.8004818397E+00  4.4151122039E+00  8.8011602567E-01  6.8271295202E-01  8.1854660974E-01
  2.5561872910E+04  9.8596415324E+00  4.4141549870E+00  8.9043302918E-01  6.8917200203E-01  8.1950115086E-01
  2.5658862876E+04  9.9189322619E+00  4.4132016016E+00  9.0083109236E-01  6.9565401913E-01  8.2044660070E-01
  2.5755852843E+04  9.9783538214E+00  4.4122520179E+00  9.1131054073E-01  7.0215875498E-01  8.2138303985E-01
  2.5852842809E+04  1.0038054979E+01  4.4113452464E+00  9.2187169991E-01  7.0868770990E-01  8.2231054898E-01
  2.5949832776E+04  1.0097993041E+01  4.4104694741E+00  9.3251489555E-01  7.1524018158E-01  8.2322920884E-01
  2.6046822742E+04  1.0158063388E+01  4.4095971419E+00  9.4324045339E-01  7.2181470418E-01  8.2413910017E-01
  2.6143812709E+04  1.0218265819E+01  4.4087282236E+00  9.5404869920E-01  7.2841102482E-01  8.2504030371E-01
  2.6240802676E+04  1.0278600629E+01  4.4078628309E+00  9.6493995884E-01  7.3502889571E-01  8.2593290011E-01
  2.6337792642E+04  1.0339303036E+01  4.4070657525E+00  9.7591455821E-01  7.4167110877E-01  8.2681696873E-01
  2.6434782609E+04  1.0400138828E+01  4.4062717473E+00  9.8697282328E-01  7.4833443887E-01  8.2769258418E-01
  2.6531772575E+04  1.0461107807E+01  4.4054807922E+00  9.9811508010E-01  7.5501862923E-01  8.2855982261E-01
  2.6628762542E+04  1.0522209776E+01  4.4046928645E+00  1.0093416547E+00  7.6172342191E-01  8.2941876048E-01
  2.6725752508E+04  1.0583518157E+01  4.4039295356E+00  1.0206528733E+00  7.6844960346E-01  8.3026947424E-01
  2.6822742475E+04  1.0645104317E+01  4.4032112646E+00  1.0320490621E+00  7.7519797046E-01  8.3111204027E-01
  2.6919732441E+04  1.0706824619E+01  4.4024957026E+00  1.0435305474E+00  7.8196624516E-01  8.3194653467E-01
  2.7016722408E+04  1.0768678869E+01  4.4017828298E+00  1.0550976554E+00  7.8875416646E-01  8.3277303191E-01
  2.7113712375E+04  1.0830666877E+01  4.4010726264E+00  1.0667507127E+00  7.9556147230E-01  8.3359160621E-01
  2.7210702341E+04  1.0892906846E+01  4.4004021981E+00  1.0784900455E+00  8.0238977656E-01  8.3440226822E-01
  2.7307692308E+04  1.0955362362E+01  4.3997595822E+00  1.0903159805E+00  8.0923828914E-01  8.3520541707E-01
  2.7404682274E+04  1.1017952635E+01  4.3991193381E+00  1.1022289723E+00  8.1610555098E-01  8.3600297333E-01
  2.7501672241E+04  1.1080677477E+01  4.3984814486E+00  1.1142297673E+00  8.2299152560E-01  8.3679572949E-01
  2.7598662207E+04  1.1143536701E+01  4.3978458968E+00  1.1263181565E+00  8.2989565256E-01  8.3758371790E-01
  2.7695652174E+04  1.1206668746E+01  4.3972596681E+00  1.1384944667E+00  8.3682014110E-01  8.3836697464E-01
  2.7792642140E+04  1.1269977924E+01  4.3966897406E+00  1.1507590248E+00  8.4376307243E-01  8.3914553583E-01
  2.7889632107E+04  1.1333422331E+01  4.3961218720E+00  1.1631121576E+00  8.5072344219E-01  8.3991943723E-01
  2.7986622074E+04  1.1397001784E+01  4.3955560479E+00  1.1755541924E+00  8.5770098345E-01  8.4068871427E-01
  2.8083612040E+04  1.1460716103E+01  4.3949922537E+00  1.1880854560E+00  8.6469542872E-01  8.4145340202E-01
  2.8180602007E+04  1.1524703546E+01  4.3944819544E+00  1.2007062756E+00  8.7170932770E-01  8.4221353524E-01
  2.8277591973E+04  1.1588849413E+01  4.3939819196E+00  1.2134169784E+00  8.7874013671E-01  8.4296914833E-01
  2.8374581940E+04  1.1653130839E+01  4.3934836536E+00  1.2262178917E+00  8.8578713019E-01  8.4372027538E-01
  2.8471571906E+04  1.1717547646E+01  4.3929871440E+00  1.2391093426E+00  8.9285003970E-01  8.4446695015E-01
  2.8568561873E+04  1.1782099656E+01  4.3924923788E+00  1.2520916587E+00  8.9992859641E-01  8.4520920607E-01
  2.8665551839E+04  1.1846909028E+01  4.3920501406E+00  1.2651651672E+00  9.0702541464E-01  8.4594707627E-01
  2.8762541806E+04  1.1911873359E+01  4.3916173613E+00  1.2783301956E+00  9.1413787106E-01  8.4668059357E-01
  2.8859531773E+04  1.1976973436E+01  4.3911860813E+00  1.2915870714E+00  9.2126525209E-01  8.4740979046E-01
  2.8956521739E+04  1.2042209083E+01  4.3907562905E+00  1.3049361223E+00  9.2840728866E-01  8.4813469914E-01
  2.9053511706E+04  1.2107580129E+01  4.3903279787E+00  1.3183776758E+00  9.3556371149E-01  8.4885535150E-01
  2.9150501672E+04  1.2173181545E+01  4.3899463091E+00  1.3319120596E+00  9.4273690507E-01  8.4957177916E-01
  2.9247491639E+04  1.2238944888E+01  4.3895782947E+00  1.3455396014E+00  9.4992474858E-01  8.5028401340E-01
  2.9344481605E+04  1.2304844019E+01  4.3892115294E+00  1.3592606290E+00  9.5712625518E-01  8.5099208525E-01
  2.9441471572E+04  1.2370878767E+01  4.3888460048E+00  1.3730754703E+00  9.6434115602E-01  8.5169602544E-01
  2.9538461538E+04  1.2437048963E+01  4.3884817127E+00  1.3869844532E+00  9.7156918224E-01  8.5239586441E-01
  2.9635451505E+04  1.2503416519E+01  4.3881534706E+00  1.4009879056E+00  9.7881217819E-01  8.5309163233E-01
  2.9732441472E+04  1.2569958250E+01  4.3878478666E+00  1.4150861555E+00  9.8606913938E-01  8.5378335987E-01
  2.9829431438E+04  1.2636635667E+01  4.3875432791E+00  1.4292795309E+00  9.9333850460E-01  8.5447107877E-01
  2.9926421405E+04  1.2703448602E+01  4.3872397014E+00  1.4435683600E+00  1.0006200061E+00  8.5515482011E-01
  3.0023411371E+04  1.2770396891E+01  4.3869371268E+00  1.4579803491E+00  1.0079264607E+00  8.5583461467E-01
  3.0120401338E+04  1.2837512217E+01  4.3866554902E+00  1.4725756729E+00  1.0152871085E+00  8.5651049290E-01
  3.0217391304E+04  1.2904819414E+01  4.3864100394E+00  1.4872693450E+00  1.0226617135E+00  8.5718248490E-01
  3.0314381271E+04  1.2972262115E+01  4.3861653888E+00  1.5020617080E+00  1.0300477856E+00  8.5785062051E-01
  3.0411371237E+04  1.3039840156E+01  4.3859215333E+00  1.5169531048E+00  1.0374450529E+00  8.5851492921E-01
  3.0508361204E+04  1.3107553376E+01  4.3856784677E+00  1.5319438779E+00  1.0448532435E+00  8.5917544019E-01
  3.0605351171E+04  1.3175402947E+01  4.3854369248E+00  1.5470343703E+00  1.0522721372E+00  8.5983218236E-01
  3.0702341137E+04  1.3243483962E+01  4.3852494186E+00  1.5622249249E+00  1.0597051415E+00  8.6048518430E-01
  3.0799331104E+04  1.3311700376E+01  4.3850625118E+00  1.5775158846E+00  1.0671483443E+00  8.6113447432E-01
  3.0896321070E+04  1.3380052028E+01  4.3848762006E+00  1.5929075925E+00  1.0746014761E+00  8.6178008043E-01
  3.0993311037E+04  1.3448538761E+01  4.3846904812E+00  1.6084003918E+00  1.0820642679E+00  8.6242203037E-01
  3.1090301003E+04  1.3517160418E+01  4.3845053499E+00  1.6239946258E+00  1.0895364510E+00  8.6306035158E-01
  3.1187290970E+04  1.3585980428E+01  4.3843511493E+00  1.6396906377E+00  1.0970200717E+00  8.6369507124E-01
