#[MATERIAL DEFINITION FOR MC-GPU: interaction mean free path and sampling data from PENELOPE 2006]
#[MATERIAL NAME]
# Marrow_Bone11_23                                              
#[NOMINAL DENSITY (g/cm^3)]
#   1.69762000
#[NUMBER OF DATA VALUES]
#   1495
#[MEAN FREE PATHS (cm) (ie, average distance between interactions)]
#[Energy (eV)     | Rayleigh        | Compton         | Photoelectric   | TOTAL (+pair prod) (cm) | Rayleigh: max cumul prob F^2]
  5.0000000000E+03  7.3486791021E-01  5.6038243363E+00  3.5402952156E-03  3.5211074403E-03  2.5899643531E-01
  5.0969899666E+03  7.4841463622E-01  5.5485379482E+00  3.7292576178E-03  3.7082872838E-03  2.6388885894E-01
  5.1939799331E+03  7.6205149091E-01  5.4955611782E+00  3.9244240366E-03  3.9015456742E-03  2.6873719252E-01
  5.2909698997E+03  7.7577710876E-01  5.4447578249E+00  4.1258750814E-03  4.1009570631E-03  2.7354274727E-01
  5.3879598662E+03  7.8959007913E-01  5.3960015751E+00  4.3336908485E-03  4.3065952046E-03  2.7830675292E-01
  5.4849498328E+03  8.0348895203E-01  5.3491751301E+00  4.5480007644E-03  4.5185823535E-03  2.8303036123E-01
  5.5819397993E+03  8.1747224362E-01  5.3041694235E+00  4.7694348552E-03  4.7375344060E-03  2.8771472502E-01
  5.6789297659E+03  8.3153844157E-01  5.2608829196E+00  4.9975172203E-03  4.9629753869E-03  2.9236098306E-01
  5.7759197324E+03  8.4568601022E-01  5.2192209821E+00  5.2323271817E-03  5.1949774169E-03  2.9697015878E-01
  5.8729096990E+03  8.5991339564E-01  5.1790953062E+00  5.4739436013E-03  5.4336119526E-03  3.0154322967E-01
  5.9698996656E+03  8.7421903264E-01  5.1404234021E+00  5.7224448910E-03  5.6789497931E-03  3.0608117560E-01
  6.0668896321E+03  8.8860146136E-01  5.1031279787E+00  5.9784441154E-03  5.9315878306E-03  3.1058491519E-01
  6.1638795987E+03  9.0305952755E-01  5.0671362776E+00  6.2417683026E-03  6.1913483429E-03  3.1505527030E-01
  6.2608695652E+03  9.1759235997E-01  5.0323797747E+00  6.5132843020E-03  6.4590764505E-03  3.1949305889E-01
  6.3578595318E+03  9.3219908370E-01  4.9987942454E+00  6.7951498748E-03  6.7368843537E-03  3.2389911677E-01
  6.4548494983E+03  9.4688365921E-01  4.9663472921E+00  7.0846344254E-03  7.0220776712E-03  3.2827413603E-01
  6.5518394649E+03  9.6164645756E-01  4.9349877312E+00  7.3831919776E-03  7.3160761345E-03  3.3261872249E-01
  6.6488294314E+03  9.7648160736E-01  4.9046333986E+00  7.6901505958E-03  7.6182095392E-03  3.3693349002E-01
  6.7458193980E+03  9.9138810961E-01  4.8752340332E+00  8.0051175749E-03  7.9280831484E-03  3.4121905940E-01
  6.8428093645E+03  1.0063649439E+00  4.8467423782E+00  8.3281811114E-03  8.2457743854E-03  3.4547605729E-01
  6.9397993311E+03  1.0214110717E+00  4.8191139712E+00  8.6594290700E-03  8.5713600568E-03  3.4970508128E-01
  7.0367892977E+03  1.0365259997E+00  4.7923097497E+00  8.9995549979E-03  8.9055098144E-03  3.5390656974E-01
  7.1337792642E+03  1.0517257802E+00  4.7663719360E+00  9.3490984168E-03  9.2487425001E-03  3.5808092760E-01
  7.2307692308E+03  1.0669935432E+00  4.7411798405E+00  9.7071863579E-03  9.6001910836E-03  3.6222856903E-01
  7.3277591973E+03  1.0823285188E+00  4.7166977945E+00  1.0073907663E-02  9.9599319638E-03  3.6634991602E-01
  7.4247491639E+03  1.0977298861E+00  4.6928921995E+00  1.0449350869E-02  1.0328040921E-02  3.7044539718E-01
  7.5217391304E+03  1.1132071665E+00  4.6697754091E+00  1.0833604217E-02  1.0704594307E-02  3.7451538781E-01
  7.6187290970E+03  1.1287635118E+00  4.6473297519E+00  1.1226755654E-02  1.1089667309E-02  3.7856016235E-01
  7.7157190635E+03  1.1443851745E+00  4.6254707159E+00  1.1628892836E-02  1.1483332478E-02  3.8257999507E-01
  7.8127090301E+03  1.1600711588E+00  4.6041715272E+00  1.2040103136E-02  1.1885663149E-02  3.8657516881E-01
  7.9096989967E+03  1.1758373540E+00  4.5834704175E+00  1.2460473647E-02  1.2296734342E-02  3.9054597418E-01
  8.0066889632E+03  1.1916790390E+00  4.5633239486E+00  1.2890614593E-02  1.2717127329E-02  3.9449268812E-01
  8.1036789298E+03  1.2075836353E+00  4.5436646803E+00  1.3337387678E-02  1.3153500792E-02  3.9841550537E-01
  8.2006688963E+03  1.2235554951E+00  4.5244899735E+00  1.3794022827E-02  1.3599248044E-02  4.0231460782E-01
  8.2976588629E+03  1.2396170830E+00  4.5058550201E+00  1.4260616314E-02  1.4054452153E-02  4.0619018605E-01
  8.3946488294E+03  1.2557403110E+00  4.4876451025E+00  1.4737264189E-02  1.4519187718E-02  4.1004243846E-01
  8.4916387960E+03  1.2719251367E+00  4.4698458531E+00  1.5224062277E-02  1.4993532889E-02  4.1387155347E-01
  8.5886287625E+03  1.2882069131E+00  4.4525491110E+00  1.5721106187E-02  1.5477571588E-02  4.1767765975E-01
  8.6856187291E+03  1.3045487218E+00  4.4356238511E+00  1.6228491306E-02  1.5971374552E-02  4.2146087951E-01
  8.7826086957E+03  1.3209538723E+00  4.4190680405E+00  1.6746312812E-02  1.6475018726E-02  4.2522134320E-01
  8.8795986622E+03  1.3374553096E+00  4.4029590663E+00  1.7274665668E-02  1.6988586514E-02  4.2895919026E-01
  8.9765886288E+03  1.3540147788E+00  4.3871753235E+00  1.7813644630E-02  1.7512145766E-02  4.3267457419E-01
  9.0735785953E+03  1.3706474544E+00  4.3717468274E+00  1.8366215400E-02  1.8048546897E-02  4.3636756545E-01
  9.1705685619E+03  1.3873674237E+00  4.3566947984E+00  1.8930682111E-02  1.8596133354E-02  4.4003821738E-01
  9.2675585284E+03  1.4041432283E+00  4.3419281255E+00  1.9506251949E-02  1.9154113966E-02  4.4368659208E-01
  9.3645484950E+03  1.4210116396E+00  4.3275250753E+00  2.0093022803E-02  1.9722573367E-02  4.4731275985E-01
  9.4615384615E+03  1.4379492676E+00  4.3134164950E+00  2.0691092379E-02  2.0301581740E-02  4.5091679860E-01
  9.5585284281E+03  1.4549522199E+00  4.2995851358E+00  2.1300558200E-02  2.0891212936E-02  4.5449879338E-01
  9.6555183946E+03  1.4720533355E+00  4.2860912932E+00  2.1921517608E-02  2.1491549784E-02  4.5805883585E-01
  9.7525083612E+03  1.4892068315E+00  4.2728268275E+00  2.2554067768E-02  2.2102654016E-02  4.6159701805E-01
  9.8494983278E+03  1.5064599012E+00  4.2598808229E+00  2.3198305670E-02  2.2724611532E-02  4.6511337416E-01
  9.9464882943E+03  1.5237773981E+00  4.2471712920E+00  2.3854328127E-02  2.3357485123E-02  4.6860791726E-01
  1.0043478261E+04  1.5411732682E+00  4.2347186502E+00  2.4525247979E-02  2.4004239974E-02  4.7208066987E-01
  1.0140468227E+04  1.5586559868E+00  4.2225289836E+00  2.5212082900E-02  2.4665824267E-02  4.7553166210E-01
  1.0237458194E+04  1.5761977183E+00  4.2105442919E+00  2.5911307611E-02  2.5338826690E-02  4.7896093131E-01
  1.0334448161E+04  1.5938468608E+00  4.1988431683E+00  2.6623024253E-02  2.6023337539E-02  4.8236852167E-01
  1.0431438127E+04  1.6115421165E+00  4.1873111260E+00  2.7347334821E-02  2.6719410780E-02  4.8575448374E-01
  1.0528428094E+04  1.6293542646E+00  4.1760622133E+00  2.8084341167E-02  2.7427143935E-02  4.8911887104E-01
  1.0625418060E+04  1.6472154122E+00  4.1649755825E+00  2.8834144999E-02  2.8146586227E-02  4.9246170323E-01
  1.0722408027E+04  1.6651822620E+00  4.1541379478E+00  2.9596847886E-02  2.8877830182E-02  4.9578298421E-01
  1.0819397993E+04  1.6832099820E+00  4.1434708849E+00  3.0372551254E-02  2.9620930753E-02  4.9908272559E-01
  1.0916387960E+04  1.7013347223E+00  4.1330253241E+00  3.1161356394E-02  3.0375972591E-02  5.0236094590E-01
  1.1013377926E+04  1.7195294883E+00  4.1227536452E+00  3.1963364459E-02  3.1143015306E-02  5.0561767033E-01
  1.1110367893E+04  1.7378153152E+00  4.1126821670E+00  3.2778676466E-02  3.1922136960E-02  5.0885293032E-01
  1.1207357860E+04  1.7561773878E+00  4.1027832184E+00  3.3609461898E-02  3.2715360255E-02  5.1206676331E-01
  1.1304347826E+04  1.7746275049E+00  4.0930689477E+00  3.4459298452E-02  3.3526043913E-02  5.1525919956E-01
  1.1401337793E+04  1.7931569267E+00  4.0835214887E+00  3.5323056856E-02  3.4349290351E-02  5.1843024496E-01
  1.1498327759E+04  1.8117745439E+00  4.0741485790E+00  3.6200843138E-02  3.5185174679E-02  5.2157990867E-01
  1.1595317726E+04  1.8304711335E+00  4.0649326752E+00  3.7092763218E-02  3.6033762830E-02  5.2470820645E-01
  1.1692307692E+04  1.8492594669E+00  4.0558862292E+00  3.7998922904E-02  3.6895130651E-02  5.2781516032E-01
  1.1789297659E+04  1.8681228132E+00  4.0469831560E+00  3.8919427896E-02  3.7769338666E-02  5.3090079828E-01
  1.1886287625E+04  1.8870850846E+00  4.0382491538E+00  3.9854383788E-02  3.8656467356E-02  5.3396515404E-01
  1.1983277592E+04  1.9061145407E+00  4.0296413084E+00  4.0803896065E-02  3.9556567477E-02  5.3700825726E-01
  1.2080267559E+04  1.9252539768E+00  4.0212065419E+00  4.1768070107E-02  4.0469728919E-02  5.4003012069E-01
  1.2177257525E+04  1.9444486542E+00  4.0128773628E+00  4.2747011190E-02  4.1395987384E-02  5.4303076080E-01
  1.2274247492E+04  1.9637684860E+00  4.0047293761E+00  4.3740824483E-02  4.2335447919E-02  5.4601020017E-01
  1.2371237458E+04  1.9831272484E+00  3.9966632702E+00  4.4749615055E-02  4.3288124858E-02  5.4896846717E-01
  1.2468227425E+04  2.0026307171E+00  3.9887903177E+00  4.5773487871E-02  4.4254145244E-02  5.5190559574E-01
  1.2565217391E+04  2.0221726375E+00  3.9809937010E+00  4.6820010687E-02  4.5240475424E-02  5.5482162808E-01
  1.2662207358E+04  2.0418427536E+00  3.9733640035E+00  4.7885811839E-02  4.6243967954E-02  5.5771662349E-01
  1.2759197324E+04  2.0615726714E+00  3.9658279365E+00  4.8967434925E-02  4.7261310668E-02  5.6059060553E-01
  1.2856187291E+04  2.0814068434E+00  3.9584272408E+00  5.0064991276E-02  4.8292598060E-02  5.6344359548E-01
  1.2953177258E+04  2.1013286834E+00  3.9511426093E+00  5.1178592147E-02  4.9337884145E-02  5.6627562048E-01
  1.3050167224E+04  2.1213252943E+00  3.9439586547E+00  5.2308348716E-02  5.0397223535E-02  5.6908671328E-01
  1.3147157191E+04  2.1414430260E+00  3.9369168683E+00  5.3454372087E-02  5.1470712900E-02  5.7187691198E-01
  1.3244147157E+04  2.1616015732E+00  3.9299392750E+00  5.4616773289E-02  5.2558355710E-02  5.7464625983E-01
  1.3341137124E+04  2.1819177318E+00  3.9231308566E+00  5.5795663275E-02  5.3660301275E-02  5.7739480501E-01
  1.3438127090E+04  2.2022770644E+00  3.9163847396E+00  5.6991152929E-02  5.4776523572E-02  5.8012260040E-01
  1.3535117057E+04  2.2227544977E+00  3.9097656391E+00  5.8203353057E-02  5.5907140719E-02  5.8282970342E-01
  1.3632107023E+04  2.2433186411E+00  3.9032434375E+00  5.9432374395E-02  5.7052187546E-02  5.8551617577E-01
  1.3729096990E+04  2.2639546729E+00  3.8968031426E+00  6.0678655478E-02  5.8212011350E-02  5.8818208333E-01
  1.3826086957E+04  2.2847276667E+00  3.8904976721E+00  6.1942553262E-02  5.9386950565E-02  5.9082749327E-01
  1.3923076923E+04  2.3055440514E+00  3.8842463764E+00  6.3223631556E-02  6.0576477569E-02  5.9345244625E-01
  1.4020066890E+04  2.3265051432E+00  3.8781305307E+00  6.4522001137E-02  6.1780737756E-02  5.9605697765E-01
  1.4117056856E+04  2.3475354080E+00  3.8720864510E+00  6.5837772711E-02  6.2999719520E-02  5.9864112824E-01
  1.4214046823E+04  2.3686516994E+00  3.8661258356E+00  6.7171056914E-02  6.4233491907E-02  6.0120494394E-01
  1.4311036789E+04  2.3898999308E+00  3.8602826086E+00  6.8521964315E-02  6.5482152921E-02  6.0374847560E-01
  1.4408026756E+04  2.4111933209E+00  3.8544875915E+00  6.9890605412E-02  6.6745671667E-02  6.0627177883E-01
  1.4505016722E+04  2.4326378716E+00  3.8488196635E+00  7.1277090638E-02  6.8024204670E-02  6.0877491376E-01
  1.4602006689E+04  2.4541543501E+00  3.8432170665E+00  7.2681530356E-02  6.9317724802E-02  6.1125794489E-01
  1.4698996656E+04  2.4757490823E+00  3.8376830600E+00  7.4104034865E-02  7.0626287590E-02  6.1372094088E-01
  1.4795986622E+04  2.4974927763E+00  3.8322672234E+00  7.5544714394E-02  7.1950018059E-02  6.1616397436E-01
  1.4892976589E+04  2.5192834983E+00  3.8268943409E+00  7.7003679110E-02  7.3288855966E-02  6.1858711846E-01
  1.4989966555E+04  2.5412079050E+00  3.8216243599E+00  7.8481039109E-02  7.4642943557E-02  6.2099043032E-01
  1.5086956522E+04  2.5632308290E+00  3.8164307363E+00  7.9992744641E-02  7.6026598643E-02  6.2337396528E-01
  1.5183946488E+04  2.5853016498E+00  3.8112773848E+00  8.1525427745E-02  7.7427589476E-02  6.2573778342E-01
  1.5280936455E+04  2.6075555768E+00  3.8062559149E+00  8.3077407257E-02  7.8844497989E-02  6.2808194935E-01
  1.5377926421E+04  2.6298614843E+00  3.8012748199E+00  8.4648800799E-02  8.0277218134E-02  6.3040653197E-01
  1.5474916388E+04  2.6522545004E+00  3.7963574636E+00  8.6239725950E-02  8.1725838719E-02  6.3271160431E-01
  1.5571906355E+04  2.6747960695E+00  3.7915439145E+00  8.7850300251E-02  8.3190485243E-02  6.3499724334E-01
  1.5668896321E+04  2.6973874702E+00  3.7867663004E+00  8.9480641204E-02  8.4671077933E-02  6.3726352979E-01
  1.5765886288E+04  2.7201016039E+00  3.7820729297E+00  9.1130866271E-02  8.6167756493E-02  6.3951054796E-01
  1.5862876254E+04  2.7429302152E+00  3.7774566021E+00  9.2801092875E-02  8.7680555929E-02  6.4173838549E-01
  1.5959866221E+04  2.7658095095E+00  3.7728739973E+00  9.4491438400E-02  8.9209431299E-02  6.4394712505E-01
  1.6056856187E+04  2.7888404809E+00  3.7683912828E+00  9.6202020192E-02  9.0754566483E-02  6.4613683853E-01
  1.6153846154E+04  2.8119584483E+00  3.7639640894E+00  9.7932955557E-02  9.2315912576E-02  6.4830760061E-01
  1.6250836120E+04  2.8351279416E+00  3.7595685527E+00  9.9684361767E-02  9.3893455975E-02  6.5045948994E-01
  1.6347826087E+04  2.8584713001E+00  3.7552838558E+00  1.0145635605E-01  9.5487420001E-02  6.5259258895E-01
  1.6444816054E+04  2.8818808435E+00  3.7510382095E+00  1.0324905560E-01  9.7097681539E-02  6.5470698365E-01
  1.6541806020E+04  2.9053440107E+00  3.7468231058E+00  1.0506257758E-01  9.8724255317E-02  6.5680276351E-01
  1.6638795987E+04  2.9289938811E+00  3.7427236073E+00  1.0689703910E-01  1.0036739154E-01  6.5888002122E-01
  1.6735785953E+04  2.9526971277E+00  3.7386523825E+00  1.0875255724E-01  1.0202691213E-01  6.6093885258E-01
  1.6832775920E+04  2.9764629127E+00  3.7346150519E+00  1.1062924905E-01  1.0370286326E-01  6.6297935564E-01
  1.6929765886E+04  3.0004077069E+00  3.7306849975E+00  1.1252723154E-01  1.0539547793E-01  6.6500161553E-01
  1.7026755853E+04  3.0244066921E+00  3.7267814943E+00  1.1444662168E-01  1.0710457577E-01  6.6700571853E-01
  1.7123745819E+04  3.0484702643E+00  3.7229108974E+00  1.1638753640E-01  1.0883020319E-01  6.6899175728E-01
  1.7220735786E+04  3.0727119354E+00  3.7191438737E+00  1.1835009261E-01  1.1057259753E-01  6.7095982752E-01
  1.7317725753E+04  3.0970086039E+00  3.7154017866E+00  1.2033440716E-01  1.1233156524E-01  6.7291002799E-01
  1.7414715719E+04  3.1213650005E+00  3.7116874013E+00  1.2234059689E-01  1.1410713997E-01  6.7484246017E-01
  1.7511705686E+04  3.1459054103E+00  3.7080773680E+00  1.2437066974E-01  1.1590123187E-01  6.7675722823E-01
  1.7608695652E+04  3.1705016160E+00  3.7044907563E+00  1.2643687188E-01  1.1772412793E-01  6.7865443879E-01
  1.7705685619E+04  3.1951534362E+00  3.7009272863E+00  1.2852573523E-01  1.1956402899E-01  6.8053420082E-01
  1.7802675585E+04  3.2199866603E+00  3.6974638046E+00  1.3063738167E-01  1.2142121942E-01  6.8239778215E-01
  1.7899665552E+04  3.2448841554E+00  3.6940270671E+00  1.3277193303E-01  1.2329548648E-01  6.8424686052E-01
  1.7996655518E+04  3.2698380579E+00  3.6906120701E+00  1.3492951116E-01  1.2518683451E-01  6.8608149287E-01
  1.8093645485E+04  3.2949538959E+00  3.6872826147E+00  1.3711023785E-01  1.2709551581E-01  6.8790172827E-01
  1.8190635452E+04  3.3201543366E+00  3.6839904652E+00  1.3931423489E-01  1.2902138717E-01  6.8970761840E-01
  1.8287625418E+04  3.3454119691E+00  3.6807187384E+00  1.4154162404E-01  1.3096440643E-01  6.9149921740E-01
  1.8384615385E+04  3.3708050375E+00  3.6775142566E+00  1.4379252706E-01  1.3292477271E-01  6.9327658180E-01
  1.8481605351E+04  3.3963099920E+00  3.6743617004E+00  1.4606706566E-01  1.3490245454E-01  6.9503977040E-01
  1.8578595318E+04  3.4218729147E+00  3.6712283267E+00  1.4836536155E-01  1.3689734207E-01  6.9678884416E-01
  1.8675585284E+04  3.4475377425E+00  3.6681401419E+00  1.5068753643E-01  1.3890955703E-01  6.9852386803E-01
  1.8772575251E+04  3.4733486923E+00  3.6651224557E+00  1.5303595488E-01  1.4094113060E-01  7.0024491395E-01
  1.8869565217E+04  3.4992183780E+00  3.6621227840E+00  1.5540970797E-01  1.4299097766E-01  7.0195205610E-01
  1.8966555184E+04  3.5251494179E+00  3.6591425698E+00  1.5780779089E-01  1.4505815712E-01  7.0364537009E-01
  1.9063545151E+04  3.5512677584E+00  3.6562552830E+00  1.6023032615E-01  1.4714301363E-01  7.0532493292E-01
  1.9160535117E+04  3.5774455942E+00  3.6533849097E+00  1.6267743626E-01  1.4924522602E-01  7.0699082285E-01
  1.9257525084E+04  3.6036827588E+00  3.6505312658E+00  1.6514924370E-01  1.5136480067E-01  7.0864311936E-01
  1.9354515050E+04  3.6300642747E+00  3.6477435442E+00  1.6764587095E-01  1.5350198254E-01  7.1028190308E-01
  1.9451505017E+04  3.6565515625E+00  3.6449982968E+00  1.7016744045E-01  1.5565667754E-01  7.1190725342E-01
  1.9548494983E+04  3.6830989325E+00  3.6422687545E+00  1.7271407463E-01  1.5782876278E-01  7.1351922971E-01
  1.9645484950E+04  3.7097351022E+00  3.6395713572E+00  1.7528589591E-01  1.6001832608E-01  7.1511789100E-01
  1.9742474916E+04  3.7365330593E+00  3.6369472788E+00  1.7788302670E-01  1.6222559329E-01  7.1670329999E-01
  1.9839464883E+04  3.7633918436E+00  3.6343379384E+00  1.8050558936E-01  1.6445026955E-01  7.1827552129E-01
  1.9936454849E+04  3.7903112949E+00  3.6317431818E+00  1.8315370628E-01  1.6669235365E-01  7.1983462134E-01
  2.0033444816E+04  3.8173868854E+00  3.6292168610E+00  1.8583349971E-01  1.6895710717E-01  7.2138066837E-01
  2.0130434783E+04  3.8445585309E+00  3.6267239932E+00  1.8855077975E-01  1.7124900816E-01  7.2291373225E-01
  2.0227424749E+04  3.8717915853E+00  3.6242448075E+00  1.9129441274E-01  1.7355861785E-01  7.2443388444E-01
  2.0324414716E+04  3.8991103690E+00  3.6217926367E+00  1.9406452564E-01  1.7588601335E-01  7.2594119790E-01
  2.0421404682E+04  3.9265980516E+00  3.6194125483E+00  1.9686124537E-01  1.7823147484E-01  7.2743574698E-01
  2.0518394649E+04  3.9541478959E+00  3.6170452903E+00  1.9968469888E-01  1.8059464604E-01  7.2891760738E-01
  2.0615384615E+04  3.9817597475E+00  3.6146907333E+00  2.0253501310E-01  1.8297551917E-01  7.3038685607E-01
  2.0712374582E+04  4.0095107979E+00  3.6123897240E+00  2.0541231496E-01  1.8537435849E-01  7.3184357117E-01
  2.0809364548E+04  4.0373812389E+00  3.6101308782E+00  2.0831673138E-01  1.8779109574E-01  7.3328783192E-01
  2.0906354515E+04  4.0653144592E+00  3.6078839388E+00  2.1124838928E-01  1.9022552346E-01  7.3471971859E-01
  2.1003344482E+04  4.0933103080E+00  3.6056487882E+00  2.1420741559E-01  1.9267762938E-01  7.3613931204E-01
  2.1100334448E+04  4.1214923204E+00  3.6034884097E+00  2.1719393721E-01  1.9514786240E-01  7.3754668763E-01
  2.1197324415E+04  4.1497507399E+00  3.6013457854E+00  2.2020808106E-01  1.9763581255E-01  7.3894191753E-01
  2.1294314381E+04  4.1780725786E+00  3.5992142078E+00  2.2324997404E-01  2.0014141705E-01  7.4032507522E-01
  2.1391304348E+04  4.2064813601E+00  3.5971052915E+00  2.2631974305E-01  2.0266475136E-01  7.4169623544E-01
  2.1488294314E+04  4.2350688136E+00  3.5950638364E+00  2.2941751499E-01  2.0520616443E-01  7.4305547409E-01
  2.1585284281E+04  4.2637204937E+00  3.5930327257E+00  2.3254341675E-01  2.0776519897E-01  7.4440286820E-01
  2.1682274247E+04  4.2924362551E+00  3.5910118608E+00  2.3569757524E-01  2.1034183506E-01  7.4573849578E-01
  2.1779264214E+04  4.3212683999E+00  3.5890261789E+00  2.3888011732E-01  2.1293626707E-01  7.4706243583E-01
  2.1876254181E+04  4.3502537750E+00  3.5870925734E+00  2.4209116989E-01  2.1554863592E-01  7.4837476822E-01
  2.1973244147E+04  4.3793040576E+00  3.5851685566E+00  2.4533085982E-01  2.1817856132E-01  7.4967557366E-01
  2.2070234114E+04  4.4084191055E+00  3.5832540390E+00  2.4859931399E-01  2.2082601899E-01  7.5096493360E-01
  2.2167224080E+04  4.4376716211E+00  3.5813824670E+00  2.5189665927E-01  2.2349129882E-01  7.5224293019E-01
  2.2264214047E+04  4.4670602952E+00  3.5795525069E+00  2.5522302253E-01  2.2617438202E-01  7.5350964622E-01
  2.2361204013E+04  4.4965145795E+00  3.5777314304E+00  2.5857867069E-01  2.2887505027E-01  7.5476516507E-01
  2.2458193980E+04  4.5260343350E+00  3.5759191560E+00  2.6199070300E-01  2.3161435481E-01  7.5600957021E-01
  2.2555183946E+04  4.5557036250E+00  3.5741530091E+00  2.6543272964E-01  2.3437182132E-01  7.5724294055E-01
  2.2652173913E+04  4.5855010305E+00  3.5724227398E+00  2.6890488319E-01  2.3714733668E-01  7.5846535259E-01
  2.2749163880E+04  4.6153647706E+00  3.5707006955E+00  2.7240729625E-01  2.3994059256E-01  7.5967688364E-01
  2.2846153846E+04  4.6452947093E+00  3.5689868023E+00  2.7594010141E-01  2.4275155655E-01  7.6087761176E-01
  2.2943143813E+04  4.6753765530E+00  3.5673178036E+00  2.7950343130E-01  2.4558060633E-01  7.6206761568E-01
  2.3040133779E+04  4.7055881747E+00  3.5656835014E+00  2.8309741852E-01  2.4842761660E-01  7.6324697476E-01
  2.3137123746E+04  4.7358668772E+00  3.5640568085E+00  2.8672219572E-01  2.5129225593E-01  7.6441576891E-01
  2.3234113712E+04  4.7662125271E+00  3.5624376579E+00  2.9037789554E-01  2.5417448753E-01  7.6557407855E-01
  2.3331103679E+04  4.7967020584E+00  3.5608579093E+00  2.9406465063E-01  2.5707466120E-01  7.6672198459E-01
  2.3428093645E+04  4.8273334314E+00  3.5593160641E+00  2.9778259364E-01  2.5999274302E-01  7.6785956829E-01
  2.3525083612E+04  4.8580326526E+00  3.5577812523E+00  3.0153185727E-01  2.6292832622E-01  7.6898691130E-01
  2.3622073579E+04  4.8887995915E+00  3.5562534130E+00  3.0531257417E-01  2.6588136972E-01  7.7010409556E-01
  2.3719063545E+04  4.9196912781E+00  3.5547553689E+00  3.0912487706E-01  2.6885213289E-01  7.7121120328E-01
  2.3816053512E+04  4.9507479849E+00  3.5533026689E+00  3.1296889862E-01  2.7184079952E-01  7.7230831661E-01
  2.3913043478E+04  4.9818733287E+00  3.5518564629E+00  3.1684477156E-01  2.7484682394E-01  7.7339551406E-01
  2.4010033445E+04  5.0130671818E+00  3.5504166958E+00  3.2075262861E-01  2.7787016091E-01  7.7447287192E-01
  2.4107023411E+04  5.0443548034E+00  3.5489931387E+00  3.2469260250E-01  2.8091090429E-01  7.7554046690E-01
  2.4204013378E+04  5.0758424717E+00  3.5476264557E+00  3.2866482596E-01  2.8396960684E-01  7.7659837608E-01
  2.4301003344E+04  5.1073995869E+00  3.5462657615E+00  3.3266943174E-01  2.8704550810E-01  7.7764667693E-01
  2.4397993311E+04  5.1390260242E+00  3.5449110061E+00  3.3670655259E-01  2.9013855870E-01  7.7868544715E-01
  2.4494983278E+04  5.1707216593E+00  3.5435621401E+00  3.4077632129E-01  2.9324870816E-01  7.7971476474E-01
  2.4591973244E+04  5.2026269508E+00  3.5422714012E+00  3.4487887061E-01  2.9637672713E-01  7.8073470789E-01
  2.4688963211E+04  5.2346215287E+00  3.5409932931E+00  3.4901433333E-01  2.9952188044E-01  7.8174535494E-01
  2.4785953177E+04  5.2666862625E+00  3.5397206546E+00  3.5318284225E-01  3.0268400486E-01  7.8274678437E-01
  2.4882943144E+04  5.2988210306E+00  3.5384534411E+00  3.5738453017E-01  3.0586304595E-01  7.8373907475E-01
  2.4979933110E+04  5.3311100787E+00  3.5372222507E+00  3.6161952990E-01  3.0905946562E-01  7.8472230469E-01
  2.5076923077E+04  5.3635463237E+00  3.5360239407E+00  3.6590957298E-01  3.1228891445E-01  7.8569655277E-01
  2.5173913043E+04  5.3960535669E+00  3.5348306601E+00  3.7023931206E-01  3.1553949752E-01  7.8666189547E-01
  2.5270903010E+04  5.4286316894E+00  3.5336423685E+00  3.7460330582E-01  3.1880708121E-01  7.8761840636E-01
  2.5367892977E+04  5.4612948390E+00  3.5324644151E+00  3.7900169187E-01  3.2209170024E-01  7.8856615902E-01
  2.5464882943E+04  5.4941667244E+00  3.5313431393E+00  3.8343460784E-01  3.2539412608E-01  7.8950522720E-01
  2.5561872910E+04  5.5271103755E+00  3.5302264800E+00  3.8790219137E-01  3.2871340184E-01  7.9043568475E-01
  2.5658862876E+04  5.5601256760E+00  3.5291144007E+00  3.9240458015E-01  3.3204946504E-01  7.9135760560E-01
  2.5755852843E+04  5.5932125098E+00  3.5280068655E+00  3.9694191186E-01  3.3540225211E-01  7.9227106376E-01
  2.5852842809E+04  5.6264522371E+00  3.5269367447E+00  4.0151432421E-01  3.3877229737E-01  7.9317613320E-01
  2.5949832776E+04  5.6598214971E+00  3.5258940620E+00  4.0612195493E-01  3.4215938261E-01  7.9407288792E-01
  2.6046822742E+04  5.6932630670E+00  3.5248555757E+00  4.1076494176E-01  3.4556302643E-01  7.9496140184E-01
  2.6143812709E+04  5.7267768332E+00  3.5238212534E+00  4.1544342249E-01  3.4898316149E-01  7.9584174879E-01
  2.6240802676E+04  5.7603629474E+00  3.5227911792E+00  4.2015753489E-01  3.5241972159E-01  7.9671400253E-01
  2.6337792642E+04  5.7941463509E+00  3.5218199625E+00  4.2490741677E-01  3.5587366710E-01  7.9757823573E-01
  2.6434782609E+04  5.8280026145E+00  3.5208525820E+00  4.2969320597E-01  3.5934392706E-01  7.9843451737E-01
  2.6531772575E+04  5.8619316273E+00  3.5198890087E+00  4.3451504031E-01  3.6283043049E-01  7.9928291757E-01
  2.6628762542E+04  5.8959332788E+00  3.5189292136E+00  4.3937305767E-01  3.6633310544E-01  8.0012350660E-01
  2.6725752508E+04  5.9300451928E+00  3.5179913785E+00  4.4426739593E-01  3.6985222699E-01  8.0095635467E-01
  2.6822742475E+04  5.9643039345E+00  3.5170927402E+00  4.4919819299E-01  3.7338807477E-01  8.0178153185E-01
  2.6919732441E+04  5.9986358673E+00  3.5161975737E+00  4.5416558677E-01  3.7693990357E-01  8.0259910795E-01
  2.7016722408E+04  6.0330408831E+00  3.5153058534E+00  4.5916971521E-01  3.8050763794E-01  8.0340915145E-01
  2.7113712375E+04  6.0675188744E+00  3.5144175535E+00  4.6421071627E-01  3.8409120150E-01  8.0421173058E-01
  2.7210702341E+04  6.1021277536E+00  3.5135639631E+00  4.6928872792E-01  3.8769113235E-01  8.0500682741E-01
  2.7307692308E+04  6.1368496559E+00  3.5127349758E+00  4.7440388816E-01  3.9130718198E-01  8.0579495092E-01
  2.7404682274E+04  6.1716449745E+00  3.5119091221E+00  4.7955638315E-01  3.9493888982E-01  8.0657867420E-01
  2.7501672241E+04  6.2065136041E+00  3.5110863792E+00  4.8474650860E-01  3.9858628249E-01  8.0735904062E-01
  2.7598662207E+04  6.2414554397E+00  3.5102667245E+00  4.8997420122E-01  4.0224914237E-01  8.0813606343E-01
  2.7695652174E+04  6.2765344660E+00  3.5094897905E+00  4.9523959914E-01  4.0592818652E-01  8.0890975950E-01
  2.7792642140E+04  6.3117064195E+00  3.5087277010E+00  5.0054284045E-01  4.0962280234E-01  8.0968014598E-01
  2.7889632107E+04  6.3469519083E+00  3.5079684310E+00  5.0588406331E-01  4.1333266921E-01  8.1044723995E-01
  2.7986622074E+04  6.3822708297E+00  3.5072119603E+00  5.1126340587E-01  4.1705770340E-01  8.1121105839E-01
  2.8083612040E+04  6.4176630814E+00  3.5064582690E+00  5.1668100630E-01  4.2079782031E-01  8.1197161815E-01
  2.8180602007E+04  6.4531877206E+00  3.5057507803E+00  5.2213700280E-01  4.2455382766E-01  8.1272893602E-01
  2.8277591973E+04  6.4887957027E+00  3.5050529966E+00  5.2763153358E-01  4.2832492120E-01  8.1348302869E-01
  2.8374581940E+04  6.5244772328E+00  3.5043577403E+00  5.3316473687E-01  4.3211086943E-01  8.1423391274E-01
  2.8471571906E+04  6.5602322105E+00  3.5036649937E+00  5.3873675090E-01  4.3591158482E-01  8.1498160466E-01
  2.8568561873E+04  6.5960605360E+00  3.5029747392E+00  5.4434771395E-01  4.3972697904E-01  8.1572612086E-01
  2.8665551839E+04  6.6320088107E+00  3.5023298363E+00  5.4999776430E-01  4.4355785954E-01  8.1646747763E-01
  2.8762541806E+04  6.6680379060E+00  3.5016939153E+00  5.5568704024E-01  4.4740340799E-01  8.1720569119E-01
  2.8859531773E+04  6.7041404556E+00  3.5010602501E+00  5.6141568009E-01  4.5126339604E-01  8.1794077765E-01
  2.8956521739E+04  6.7403163616E+00  3.5004288249E+00  5.6718382219E-01  4.5513773261E-01  8.1867275305E-01
  2.9053511706E+04  6.7765655266E+00  3.4997996245E+00  5.7299160487E-01  4.5902632587E-01  8.1940163332E-01
  2.9150501672E+04  6.8129182910E+00  3.4992107758E+00  5.7883916653E-01  4.6292989134E-01  8.2012743431E-01
  2.9247491639E+04  6.8493527142E+00  3.4986344124E+00  5.8472664553E-01  4.6684777562E-01  8.2085017176E-01
  2.9344481605E+04  6.8858603920E+00  3.4980600517E+00  5.9065418028E-01  4.7077966688E-01  8.2156986134E-01
  2.9441471572E+04  6.9224412288E+00  3.4974876800E+00  5.9662190919E-01  4.7472547075E-01  8.2228651862E-01
  2.9538461538E+04  6.9590951295E+00  3.4969172840E+00  6.0262997072E-01  4.7868509215E-01  8.2300015908E-01
  2.9635451505E+04  6.9958363606E+00  3.4963782644E+00  6.0867850330E-01  4.8265906420E-01  8.2371079813E-01
  2.9732441472E+04  7.0326595010E+00  3.4958592811E+00  6.1476764541E-01  4.8664707509E-01  8.2441845106E-01
  2.9829431438E+04  7.0695555910E+00  3.4953420647E+00  6.2089753554E-01  4.9064864402E-01  8.2512313310E-01
  2.9926421405E+04  7.1065245371E+00  3.4948266034E+00  6.2706831218E-01  4.9466367361E-01  8.2582485936E-01
  3.0023411371E+04  7.1435662463E+00  3.4943128857E+00  6.3329232873E-01  4.9869964042E-01  8.2652364491E-01
  3.0120401338E+04  7.1806857962E+00  3.4938177480E+00  6.3959641981E-01  5.0277323642E-01  8.2721950469E-01
  3.0217391304E+04  7.2178871517E+00  3.4933540624E+00  6.4594265769E-01  5.0686097722E-01  8.2791245358E-01
  3.0314381271E+04  7.2551610961E+00  3.4928919239E+00  6.5233118717E-01  5.1096210805E-01  8.2860250637E-01
  3.0411371237E+04  7.2925075382E+00  3.4924313226E+00  6.5876215307E-01  5.1507652687E-01  8.2928967774E-01
  3.0508361204E+04  7.3299263870E+00  3.4919722483E+00  6.6523570024E-01  5.1920413101E-01  8.2997398232E-01
  3.0605351171E+04  7.3674178563E+00  3.4915153147E+00  6.7175197356E-01  5.2334483271E-01  8.3065543465E-01
  3.0702341137E+04  7.4050036194E+00  3.4911048988E+00  6.7831111794E-01  5.2749965260E-01  8.3133404916E-01
  3.0799331104E+04  7.4426616756E+00  3.4906958253E+00  6.8491327831E-01  5.3166737813E-01  8.3200984023E-01
  3.0896321070E+04  7.4803919357E+00  3.4902880857E+00  6.9155859964E-01  5.3584790463E-01  8.3268282214E-01
  3.0993311037E+04  7.5181943107E+00  3.4898816716E+00  6.9824722693E-01  5.4004112684E-01  8.3335300908E-01
  3.1090301003E+04  7.5560687121E+00  3.4894765743E+00  7.0497930520E-01  5.4424693894E-01  8.3402041518E-01
  3.1187290970E+04  7.5940340607E+00  3.4890984437E+00  7.1175497949E-01  5.4846596772E-01  8.3468505447E-01
