#[MATERIAL DEFINITION FOR MC-GPU: interaction mean free path and sampling data from PENELOPE 2006]
#[MATERIAL NAME]
# Marrow_Bone01_13                                              
#[NOMINAL DENSITY (g/cm^3)]
#   1.11115000
#[NUMBER OF DATA VALUES]
#   1495
#[MEAN FREE PATHS (cm) (ie, average distance between interactions)]
#[Energy (eV)     | Rayleigh        | Compton         | Photoelectric   | TOTAL (+pair prod) (cm) | Rayleigh: max cumul prob F^2]
  5.0000000000E+03  1.7601006009E+00  6.9889863678E+00  1.4929943652E-02  1.4773073587E-02  3.0465110657E-01
  5.0969899666E+03  1.7967434342E+00  6.9348733968E+00  1.5763282701E-02  1.5591059225E-02  3.0953762146E-01
  5.1939799331E+03  1.8336734628E+00  6.8830227205E+00  1.6625832364E-02  1.6437094448E-02  3.1435983230E-01
  5.2909698997E+03  1.8708839845E+00  6.8332991158E+00  1.7518028230E-02  1.7311551110E-02  3.1912074622E-01
  5.3879598662E+03  1.9083682162E+00  6.7855770931E+00  1.8440303694E-02  1.8214796535E-02  3.2382324329E-01
  5.4849498328E+03  1.9461193169E+00  6.7397400582E+00  1.9393378914E-02  1.9147475147E-02  3.2847008768E-01
  5.5819397993E+03  1.9841304096E+00  6.6956795592E+00  2.0380889486E-02  2.0113067158E-02  3.3306393790E-01
  5.6789297659E+03  2.0223946028E+00  6.6532946101E+00  2.1400059162E-02  2.1108799830E-02  3.3760735452E-01
  5.7759197324E+03  2.0609050130E+00  6.6124910821E+00  2.2451403031E-02  2.2135108813E-02  3.4210275124E-01
  5.8729096990E+03  2.0996547853E+00  6.5731811533E+00  2.3535383609E-02  2.3192375685E-02  3.4655241094E-01
  5.9698996656E+03  2.1386371213E+00  6.5352828092E+00  2.4652334034E-02  2.4280853623E-02  3.5095853475E-01
  6.0668896321E+03  2.1778456307E+00  6.4987192157E+00  2.5805919078E-02  2.5404022079E-02  3.5532320341E-01
  6.1638795987E+03  2.2172749345E+00  6.4634180271E+00  2.6995065552E-02  2.6560757928E-02  3.5964833946E-01
  6.2608695652E+03  2.2569206129E+00  6.4293111061E+00  2.8221742841E-02  2.7752883440E-02  3.6393579628E-01
  6.3578595318E+03  2.2967783669E+00  6.3963346596E+00  2.9492425672E-02  2.8986563410E-02  3.6818734685E-01
  6.4548494983E+03  2.3368527086E+00  6.3644581806E+00  3.0799492009E-02  3.0254333183E-02  3.7240459974E-01
  6.5518394649E+03  2.3771411936E+00  6.3336306335E+00  3.2147383635E-02  3.1560385316E-02  3.7658909149E-01
  6.6488294314E+03  2.4176304999E+00  6.3037686570E+00  3.3534385469E-02  3.2902961145E-02  3.8074230436E-01
  6.7458193980E+03  2.4583163841E+00  6.2748225269E+00  3.4959571630E-02  3.4281068895E-02  3.8486557235E-01
  6.8428093645E+03  2.4991946943E+00  6.2467456066E+00  3.6423410907E-02  3.5695058911E-02  3.8896015657E-01
  6.9397993311E+03  2.5402613853E+00  6.2194941407E+00  3.7926370755E-02  3.7145276581E-02  3.9302730889E-01
  7.0367892977E+03  2.5815134322E+00  6.1930298953E+00  3.9472428574E-02  3.8635426535E-02  3.9706813332E-01
  7.1337792642E+03  2.6229742590E+00  6.1673966802E+00  4.1064690687E-02  4.0168368718E-02  4.0108357818E-01
  7.2307692308E+03  2.6646149321E+00  6.1424739924E+00  4.2698070038E-02  4.1739098090E-02  4.0507457830E-01
  7.3277591973E+03  2.7064329668E+00  6.1182277627E+00  4.4373043960E-02  4.3347951813E-02  4.0904205810E-01
  7.4247491639E+03  2.7484258892E+00  6.0946259497E+00  4.6090088581E-02  4.4995261807E-02  4.1298693201E-01
  7.5217391304E+03  2.7906071054E+00  6.0716822472E+00  4.7849678841E-02  4.6681361729E-02  4.1691001315E-01
  7.6187290970E+03  2.8329796253E+00  6.0493797017E+00  4.9652288509E-02  4.8406576416E-02  4.2081192826E-01
  7.7157190635E+03  2.8755211362E+00  6.0276351723E+00  5.1498390195E-02  5.0171213537E-02  4.2469328392E-01
  7.8127090301E+03  2.9182291714E+00  6.0064232824E+00  5.3388455366E-02  5.1975583702E-02  4.2855468576E-01
  7.9096989967E+03  2.9611260622E+00  5.9857824557E+00  5.5322954363E-02  5.3820005268E-02  4.3239673852E-01
  8.0066889632E+03  3.0042030928E+00  5.9656700435E+00  5.7304236971E-02  5.5706553269E-02  4.3622001083E-01
  8.1036789298E+03  3.0474411413E+00  5.9460207139E+00  5.9357164557E-02  5.7658522741E-02  4.4002491473E-01
  8.2006688963E+03  3.0908459213E+00  5.9268327458E+00  6.1457618250E-02  5.9652929828E-02  4.4381182574E-01
  8.2976588629E+03  3.1344499197E+00  5.9081606515E+00  6.3606107294E-02  6.1690111423E-02  4.4758112332E-01
  8.3946488294E+03  3.1782118365E+00  5.8898931264E+00  6.5803140106E-02  6.3770353792E-02  4.5133319053E-01
  8.4916387960E+03  3.2221311881E+00  5.8720169875E+00  6.8049237347E-02  6.5893973407E-02  4.5506838265E-01
  8.5886287625E+03  3.2662596110E+00  5.8546220258E+00  7.0345085083E-02  6.8061472858E-02  4.5878693710E-01
  8.6856187291E+03  3.3105426015E+00  5.8375812761E+00  7.2691008672E-02  7.0272939440E-02  4.6248906986E-01
  8.7826086957E+03  3.3549846221E+00  5.8208934264E+00  7.5087513596E-02  7.2528663472E-02  4.6617500307E-01
  8.8795986622E+03  3.3996340790E+00  5.8046336966E+00  7.7535104555E-02  7.4828963929E-02  4.6984496387E-01
  8.9765886288E+03  3.4444341750E+00  5.7886847018E+00  8.0034285474E-02  7.7174074018E-02  4.7349913381E-01
  9.0735785953E+03  3.4894070286E+00  5.7730759354E+00  8.2597199742E-02  7.9575084957E-02  4.7713761935E-01
  9.1705685619E+03  3.5345738062E+00  5.7578285864E+00  8.5217126395E-02  8.2025528682E-02  4.8076052761E-01
  9.2675585284E+03  3.5798873639E+00  5.7428550659E+00  8.7890977991E-02  8.4522280817E-02  4.8436797273E-01
  9.3645484950E+03  3.6254030995E+00  5.7282321464E+00  9.0619273707E-02  8.7065653903E-02  4.8796006418E-01
  9.4615384615E+03  3.6710859917E+00  5.7138934040E+00  9.3402532065E-02  8.9655874242E-02  4.9153684702E-01
  9.5585284281E+03  3.7169297604E+00  5.6998224087E+00  9.6241562845E-02  9.2293454775E-02  4.9509834767E-01
  9.6555183946E+03  3.7629852092E+00  5.6860792110E+00  9.9136712308E-02  9.4978531626E-02  4.9864460025E-01
  9.7525083612E+03  3.8091816604E+00  5.6725580648E+00  1.0208839720E-01  9.7711180565E-02  5.0217565181E-01
  9.8494983278E+03  3.8555923664E+00  5.6593474715E+00  1.0509713395E-01  1.0049170930E-01  5.0569153618E-01
  9.9464882943E+03  3.9021628472E+00  5.6463671323E+00  1.0816343837E-01  1.0332028638E-01  5.0919219904E-01
  1.0043478261E+04  3.9489147009E+00  5.6336376991E+00  1.1129994982E-01  1.0620819445E-01  5.1267758528E-01
  1.0140468227E+04  3.9958623887E+00  5.6211661752E+00  1.1451092643E-01  1.0915899647E-01  5.1614764830E-01
  1.0237458194E+04  4.0429611929E+00  5.6088949595E+00  1.1778234247E-01  1.1215957032E-01  5.1960234961E-01
  1.0334448161E+04  4.0902909999E+00  5.5969039067E+00  1.2111473850E-01  1.1521022653E-01  5.2304165843E-01
  1.0431438127E+04  4.1377515332E+00  5.5850781305E+00  1.2450865458E-01  1.1831104998E-01  5.2646555131E-01
  1.0528428094E+04  4.1854612548E+00  5.5735338175E+00  1.2796463031E-01  1.2146239164E-01  5.2987400597E-01
  1.0625418060E+04  4.2333070578E+00  5.5621488828E+00  1.3148320483E-01  1.2466429955E-01  5.3326693725E-01
  1.0722408027E+04  4.2813855469E+00  5.5510123098E+00  1.3506491681E-01  1.2791708969E-01  5.3664423365E-01
  1.0819397993E+04  4.3296209091E+00  5.5400445473E+00  1.3871030445E-01  1.3122083873E-01  5.4000579368E-01
  1.0916387960E+04  4.3780759532E+00  5.5292983984E+00  1.4241990550E-01  1.3457580869E-01  5.4335152423E-01
  1.1013377926E+04  4.4267046481E+00  5.5187255010E+00  1.4619425725E-01  1.3798209931E-01  5.4668134033E-01
  1.1110367893E+04  4.4755441960E+00  5.5083535092E+00  1.5003389653E-01  1.4143992568E-01  5.4999516476E-01
  1.1207357860E+04  4.5245694508E+00  5.4981544292E+00  1.5394772726E-01  1.4495682019E-01  5.5329292777E-01
  1.1304347826E+04  4.5738016044E+00  5.4881412954E+00  1.5795038671E-01  1.4854538052E-01  5.5657454518E-01
  1.1401337793E+04  4.6232260701E+00  5.4782961510E+00  1.6202127848E-01  1.5218692990E-01  5.5983989383E-01
  1.1498327759E+04  4.6728590767E+00  5.4686274713E+00  1.6616096289E-01  1.5588163881E-01  5.6308885543E-01
  1.1595317726E+04  4.7226847992E+00  5.4591174613E+00  1.7036999997E-01  1.5962961500E-01  5.6632132010E-01
  1.1692307692E+04  4.7727270442E+00  5.4497796604E+00  1.7464894940E-01  1.6343102897E-01  5.6953718610E-01
  1.1789297659E+04  4.8229554343E+00  5.4405869870E+00  1.7899837058E-01  1.6728594597E-01  5.7273635948E-01
  1.1886287625E+04  4.8734154344E+00  5.4315672578E+00  1.8341882257E-01  1.7119456362E-01  5.7591875394E-01
  1.1983277592E+04  4.9240472390E+00  5.4226750554E+00  1.8791086411E-01  1.7515687398E-01  5.7908427556E-01
  1.2080267559E+04  4.9749336352E+00  5.4139613037E+00  1.9247505363E-01  1.7917313585E-01  5.8223280647E-01
  1.2177257525E+04  5.0259689082E+00  5.4053535743E+00  1.9711194928E-01  1.8324322998E-01  5.8536423494E-01
  1.2274247492E+04  5.0772904590E+00  5.3969343685E+00  2.0182210885E-01  1.8736751841E-01  5.8847845737E-01
  1.2371237458E+04  5.1287285327E+00  5.3885959224E+00  2.0660608987E-01  1.9154572403E-01  5.9157537806E-01
  1.2468227425E+04  5.1804941237E+00  5.3804604606E+00  2.1146444953E-01  1.9577836307E-01  5.9465490893E-01
  1.2565217391E+04  5.2323750005E+00  5.3724001799E+00  2.1642559787E-01  2.0008884455E-01  5.9771697303E-01
  1.2662207358E+04  5.2845527539E+00  5.3645153751E+00  2.2147717948E-01  2.0446641470E-01  6.0076151705E-01
  1.2759197324E+04  5.3368887667E+00  5.3567253441E+00  2.2660647528E-01  2.0889941307E-01  6.0378844681E-01
  1.2856187291E+04  5.3894748110E+00  5.3490769317E+00  2.3181406989E-01  2.1338809787E-01  6.0679766603E-01
  1.2953177258E+04  5.4422767187E+00  5.3415489116E+00  2.3710054778E-01  2.1793243095E-01  6.0978908629E-01
  1.3050167224E+04  5.4952688264E+00  5.3341246215E+00  2.4246649322E-01  2.2253237767E-01  6.1276262675E-01
  1.3147157191E+04  5.5485475866E+00  5.3268508400E+00  2.4791249032E-01  2.2718820715E-01  6.1571821392E-01
  1.3244147157E+04  5.6019456013E+00  5.3196403320E+00  2.5343912302E-01  2.3189950358E-01  6.1865577355E-01
  1.3341137124E+04  5.6557092373E+00  5.3126119023E+00  2.5904697509E-01  2.3666692350E-01  6.2157522107E-01
  1.3438127090E+04  5.7095969053E+00  5.3056450573E+00  2.6473663014E-01  2.4148982509E-01  6.2447647745E-01
  1.3535117057E+04  5.7637686189E+00  5.2988136253E+00  2.7050867158E-01  2.4636863424E-01  6.2735947125E-01
  1.3632107023E+04  5.8181572370E+00  5.2920835814E+00  2.7636368269E-01  2.5130315371E-01  6.3022413834E-01
  1.3729096990E+04  5.8727317145E+00  5.2854382424E+00  2.8230653385E-01  2.5629679926E-01  6.3307042182E-01
  1.3826086957E+04  5.9276326929E+00  5.2789384683E+00  2.8834104879E-01  2.6135258626E-01  6.3589827969E-01
  1.3923076923E+04  5.9826577431E+00  5.2724920406E+00  2.9446067107E-01  2.6646396305E-01  6.3870765162E-01
  1.4020066890E+04  6.0380283519E+00  5.2661929246E+00  3.0066598854E-01  2.7163156088E-01  6.4149846977E-01
  1.4117056856E+04  6.0935792650E+00  5.2599678586E+00  3.0695758893E-01  2.7685481808E-01  6.4427067389E-01
  1.4214046823E+04  6.1493482302E+00  5.2538307595E+00  3.1333605977E-01  2.8213378557E-01  6.4702421110E-01
  1.4311036789E+04  6.2054367087E+00  5.2478212556E+00  3.1980198847E-01  2.8746873308E-01  6.4975903565E-01
  1.4408026756E+04  6.2616527442E+00  5.2418591468E+00  3.2635596228E-01  2.9285894310E-01  6.5247510876E-01
  1.4505016722E+04  6.3182330719E+00  5.2360368742E+00  3.3299856828E-01  2.9830513595E-01  6.5517239840E-01
  1.4602006689E+04  6.3750006349E+00  5.2302824024E+00  3.3973039342E-01  3.0380661614E-01  6.5785087909E-01
  1.4698996656E+04  6.4319701900E+00  5.2245998744E+00  3.4655202449E-01  3.0936332532E-01  6.6051053169E-01
  1.4795986622E+04  6.4893012450E+00  5.2190478697E+00  3.5346404813E-01  3.1497574165E-01  6.6315134325E-01
  1.4892976589E+04  6.5467637214E+00  5.2135379828E+00  3.6046705081E-01  3.2064290558E-01  6.6577330276E-01
  1.4989966555E+04  6.6045550501E+00  5.2081414138E+00  3.6756161888E-01  3.2636543190E-01  6.6837638326E-01
  1.5086956522E+04  6.6625950483E+00  5.2028268988E+00  3.7480744816E-01  3.3218932875E-01  6.7096055861E-01
  1.5183946488E+04  6.7207682625E+00  5.1975518112E+00  3.8215492544E-01  3.3807419518E-01  6.7352580954E-01
  1.5280936455E+04  6.7793871901E+00  5.1924253872E+00  3.8959796185E-01  3.4401585997E-01  6.7607212333E-01
  1.5377926421E+04  6.8381486902E+00  5.1873388497E+00  3.9713717598E-01  3.5001295375E-01  6.7859949359E-01
  1.5474916388E+04  6.8971353673E+00  5.1823202544E+00  4.0477318640E-01  3.5606564844E-01  6.8110792010E-01
  1.5571906355E+04  6.9564916050E+00  5.1774176529E+00  4.1250661163E-01  3.6217440749E-01  6.8359740857E-01
  1.5668896321E+04  7.0159853451E+00  5.1725500876E+00  4.2033807022E-01  3.6833805584E-01  6.8606797047E-01
  1.5765886288E+04  7.0757907391E+00  5.1677756151E+00  4.2826818066E-01  3.7455717978E-01  6.8851962284E-01
  1.5862876254E+04  7.1358880519E+00  5.1630857710E+00  4.3629756143E-01  3.8083151897E-01  6.9095238798E-01
  1.5959866221E+04  7.1961247933E+00  5.1584287321E+00  4.4442683101E-01  3.8716016831E-01  6.9336628450E-01
  1.6056856187E+04  7.2567463203E+00  5.1538842491E+00  4.5265660783E-01  3.9354408438E-01  6.9576132172E-01
  1.6153846154E+04  7.3175954710E+00  5.1493990896E+00  4.6098751031E-01  3.9998232138E-01  6.9813751372E-01
  1.6250836120E+04  7.3785860166E+00  5.1449446474E+00  4.6942015686E-01  4.0647422363E-01  7.0049488034E-01
  1.6347826087E+04  7.4400202106E+00  5.1406166669E+00  4.7795516585E-01  4.1302108788E-01  7.0283344698E-01
  1.6444816054E+04  7.5016320012E+00  5.1363286071E+00  4.8659315565E-01  4.1962134931E-01  7.0515324445E-01
  1.6541806020E+04  7.5633903676E+00  5.1320702997E+00  4.9533474458E-01  4.2627458415E-01  7.0745430870E-01
  1.6638795987E+04  7.6256296828E+00  5.1279449407E+00  5.0418055096E-01  4.3298233243E-01  7.0973668069E-01
  1.6735785953E+04  7.6880149524E+00  5.1238468464E+00  5.1313119308E-01  4.3974255947E-01  7.1200040620E-01
  1.6832775920E+04  7.7505695671E+00  5.1197829478E+00  5.2218728921E-01  4.4655510707E-01  7.1424553521E-01
  1.6929765886E+04  7.8135911557E+00  5.1158425859E+00  5.3134945759E-01  4.5342139191E-01  7.1647211055E-01
  1.7026755853E+04  7.8767607773E+00  5.1119277406E+00  5.4061831645E-01  4.6033934632E-01  7.1868017218E-01
  1.7123745819E+04  7.9401054382E+00  5.1080462558E+00  5.4999448398E-01  4.6730882003E-01  7.2086976597E-01
  1.7220735786E+04  8.0039201645E+00  5.1042844544E+00  5.5947857836E-01  4.7433128827E-01  7.2304094258E-01
  1.7317725753E+04  8.0678850427E+00  5.1005465277E+00  5.6907121775E-01  4.8140455881E-01  7.2519375731E-01
  1.7414715719E+04  8.1320125698E+00  5.0968359474E+00  5.7877302026E-01  4.8852837908E-01  7.2732826986E-01
  1.7511705686E+04  8.1966311957E+00  5.0932466420E+00  5.8859371172E-01  4.9571096854E-01  7.2944454421E-01
  1.7608695652E+04  8.2614021319E+00  5.0896796681E+00  5.9859235472E-01  5.0299107804E-01  7.3154264840E-01
  1.7705685619E+04  8.3263248955E+00  5.0861347651E+00  6.0870416833E-01  5.1032173618E-01  7.3362265438E-01
  1.7802675585E+04  8.3917362813E+00  5.0827064592E+00  6.1892979726E-01  5.1770484548E-01  7.3568515285E-01
  1.7899665552E+04  8.4573227353E+00  5.0793048639E+00  6.2926988627E-01  5.2513800865E-01  7.3773091282E-01
  1.7996655518E+04  8.5230632081E+00  5.0759239087E+00  6.3972508016E-01  5.3262071310E-01  7.3975998002E-01
  1.8093645485E+04  8.5892433807E+00  5.0726424091E+00  6.5029602382E-01  5.4015460329E-01  7.4177239960E-01
  1.8190635452E+04  8.6556539692E+00  5.0694009582E+00  6.6098336217E-01  5.4773788397E-01  7.4376822066E-01
  1.8287625418E+04  8.7222207854E+00  5.0661787992E+00  6.7178774020E-01  5.5536964607E-01  7.4574749609E-01
  1.8384615385E+04  8.7891580210E+00  5.0630340270E+00  6.8270980296E-01  5.6305108994E-01  7.4771028244E-01
  1.8481605351E+04  8.8564012750E+00  5.0599477696E+00  6.9375019555E-01  5.7078139884E-01  7.4965663974E-01
  1.8578595318E+04  8.9238029832E+00  5.0568795328E+00  7.0490956313E-01  5.7855907960E-01  7.5158663138E-01
  1.8675585284E+04  8.9914847929E+00  5.0538617436E+00  7.1618855089E-01  5.8638467183E-01  7.5350032396E-01
  1.8772575251E+04  9.0595691665E+00  5.0509259926E+00  7.2759572329E-01  5.9426405740E-01  7.5539778713E-01
  1.8869565217E+04  9.1278142381E+00  5.0480070626E+00  7.3912810050E-01  6.0219245674E-01  7.5727909349E-01
  1.8966555184E+04  9.1962273626E+00  5.0451068231E+00  7.5078235388E-01  6.1016683171E-01  7.5914431841E-01
  1.9063545151E+04  9.2651612309E+00  5.0423171376E+00  7.6255913258E-01  6.1818969964E-01  7.6099353994E-01
  1.9160535117E+04  9.3342580586E+00  5.0395431401E+00  7.7445908578E-01  6.2625771200E-01  7.6282683865E-01
  1.9257525084E+04  9.4035174031E+00  5.0367846637E+00  7.8648286274E-01  6.3437041752E-01  7.6464429753E-01
  1.9354515050E+04  9.4731801210E+00  5.0341034756E+00  7.9863111276E-01  6.4252947831E-01  7.6644600183E-01
  1.9451505017E+04  9.5431370169E+00  5.0314702618E+00  8.1090448523E-01  6.5073355554E-01  7.6823203591E-01
  1.9548494983E+04  9.6132587153E+00  5.0288515124E+00  8.2330362959E-01  6.5898106778E-01  7.7000246207E-01
  1.9645484950E+04  9.6836275452E+00  5.0262679880E+00  8.3582919532E-01  6.6727230583E-01  7.7175735009E-01
  1.9742474916E+04  9.7544527392E+00  5.0237716197E+00  8.4848183199E-01  6.7560878266E-01  7.7349677529E-01
  1.9839464883E+04  9.8254450387E+00  5.0212887162E+00  8.6126218920E-01  6.8398739944E-01  7.7522081566E-01
  1.9936454849E+04  9.8966040183E+00  5.0188191396E+00  8.7417091663E-01  6.9240767265E-01  7.7692955179E-01
  2.0033444816E+04  9.9682058343E+00  5.0164310128E+00  8.8723205409E-01  7.0088641050E-01  7.7862306668E-01
  2.0130434783E+04  1.0040076812E+01  5.0140802095E+00  9.0046847013E-01  7.0943507428E-01  7.8030144565E-01
  2.0227424749E+04  1.0112116795E+01  5.0117417991E+00  9.1383695798E-01  7.1802467538E-01  7.8196477613E-01
  2.0324414716E+04  1.0184395753E+01  5.0094327224E+00  9.2733818766E-01  7.2665542594E-01  7.8361314386E-01
  2.0421404682E+04  1.0257152914E+01  5.0072101372E+00  9.4097282927E-01  7.3532932038E-01  7.8524663112E-01
  2.0518394649E+04  1.0330081418E+01  5.0049990621E+00  9.5474155308E-01  7.4404276510E-01  7.8686532208E-01
  2.0615384615E+04  1.0403180858E+01  5.0027993836E+00  9.6864502944E-01  7.5279524409E-01  7.8846930311E-01
  2.0712374582E+04  1.0476670842E+01  5.0006629801E+00  9.8268392884E-01  7.6158860589E-01  7.9005866267E-01
  2.0809364548E+04  1.0550495108E+01  4.9985754850E+00  9.9685892188E-01  7.7042180924E-01  7.9163349123E-01
  2.0906354515E+04  1.0624492664E+01  4.9964985623E+00  1.0111706793E+00  7.7929262196E-01  7.9319388108E-01
  2.1003344482E+04  1.0698663109E+01  4.9944321096E+00  1.0256198719E+00  7.8820051478E-01  7.9473993299E-01
  2.1100334448E+04  1.0773354131E+01  4.9924562307E+00  1.0402071707E+00  7.9714890548E-01  7.9627178685E-01
  2.1197324415E+04  1.0848256938E+01  4.9904985308E+00  1.0549332468E+00  8.0613386167E-01  7.9778953634E-01
  2.1294314381E+04  1.0923335004E+01  4.9885505306E+00  1.0697987712E+00  8.1515444101E-01  7.9929326654E-01
  2.1391304348E+04  1.0998653847E+01  4.9866270598E+00  1.0848044155E+00  8.2421088070E-01  8.0078306456E-01
  2.1488294314E+04  1.1074468921E+01  4.9847852142E+00  1.0999508508E+00  8.3330572117E-01  8.0225901939E-01
  2.1585284281E+04  1.1150461636E+01  4.9829523390E+00  1.1152387489E+00  8.4243470823E-01  8.0372122180E-01
  2.1682274247E+04  1.1226631608E+01  4.9811283505E+00  1.1306687813E+00  8.5159729468E-01  8.0516976419E-01
  2.1779264214E+04  1.1303122941E+01  4.9793450901E+00  1.1462416198E+00  8.6079472275E-01  8.0660474054E-01
  2.1876254181E+04  1.1380037213E+01  4.9776241644E+00  1.1619579363E+00  8.7002778207E-01  8.0802624626E-01
  2.1973244147E+04  1.1457131138E+01  4.9759114425E+00  1.1778184027E+00  8.7929294224E-01  8.0943437810E-01
  2.2070234114E+04  1.1534404340E+01  4.9742068493E+00  1.1938236912E+00  8.8858964825E-01  8.1082923405E-01
  2.2167224080E+04  1.1612055030E+01  4.9725531472E+00  1.2099744738E+00  8.9791992717E-01  8.1221091325E-01
  2.2264214047E+04  1.1690079705E+01  4.9709486948E+00  1.2262714231E+00  9.0728326574E-01  8.1357951589E-01
  2.2361204013E+04  1.1768286069E+01  4.9693517311E+00  1.2427158204E+00  9.1667696669E-01  8.1493514309E-01
  2.2458193980E+04  1.1846673754E+01  4.9677621888E+00  1.2594256694E+00  9.2616391639E-01  8.1627789631E-01
  2.2555183946E+04  1.1925469562E+01  4.9662278621E+00  1.2762863716E+00  9.3568352256E-01  8.1760786980E-01
  2.2652173913E+04  1.2004615772E+01  4.9647356962E+00  1.2932986270E+00  9.4523452163E-01  8.1892515346E-01
  2.2749163880E+04  1.2083945730E+01  4.9632503511E+00  1.3104631351E+00  9.5481409665E-01  8.2022983854E-01
  2.2846153846E+04  1.2163459076E+01  4.9617717668E+00  1.3277805961E+00  9.6442167182E-01  8.2152201759E-01
  2.2943143813E+04  1.2243384657E+01  4.9603470682E+00  1.3452517101E+00  9.7405994029E-01  8.2280178436E-01
  2.3040133779E+04  1.2323663456E+01  4.9589632421E+00  1.3628771776E+00  9.8372758152E-01  8.2406923370E-01
  2.3137123746E+04  1.2404128084E+01  4.9575856128E+00  1.3806576991E+00  9.9342165998E-01  8.2532446147E-01
  2.3234113712E+04  1.2484778192E+01  4.9562141267E+00  1.3985939753E+00  1.0031415973E+00  8.2656756448E-01
  2.3331103679E+04  1.2565817093E+01  4.9548897140E+00  1.4166867070E+00  1.0128898502E+00  8.2779864034E-01
  2.3428093645E+04  1.2647239454E+01  4.9536105038E+00  1.4349365955E+00  1.0226658563E+00  8.2901778744E-01
  2.3525083612E+04  1.2728849751E+01  4.9523369067E+00  1.4533443420E+00  1.0324661570E+00  8.3022510485E-01
  2.3622073579E+04  1.2810647638E+01  4.9510688751E+00  1.4719106478E+00  1.0422901732E+00  8.3142069221E-01
  2.3719063545E+04  1.2892782293E+01  4.9498357834E+00  1.4906362146E+00  1.0521396504E+00  8.3260464969E-01
  2.3816053512E+04  1.2975359107E+01  4.9486576720E+00  1.5095217442E+00  1.0620157375E+00  8.3377707753E-01
  2.3913043478E+04  1.3058125983E+01  4.9474846272E+00  1.5285679384E+00  1.0719139795E+00  8.3493807010E-01
  2.4010033445E+04  1.3141082585E+01  4.9463166071E+00  1.5477754995E+00  1.0818337986E+00  8.3608771774E-01
  2.4107023411E+04  1.3224294311E+01  4.9451662229E+00  1.5671451297E+00  1.0917756814E+00  8.3722611158E-01
  2.4204013378E+04  1.3308036382E+01  4.9440858849E+00  1.5866775315E+00  1.1017435857E+00  8.3835334357E-01
  2.4301003344E+04  1.3391970663E+01  4.9430101020E+00  1.6063734074E+00  1.1117315154E+00  8.3946950638E-01
  2.4397993311E+04  1.3476096826E+01  4.9419388369E+00  1.6262334603E+00  1.1217388951E+00  8.4057469331E-01
  2.4494983278E+04  1.3560414544E+01  4.9408720527E+00  1.6462583931E+00  1.1317651498E+00  8.4166899828E-01
  2.4591973244E+04  1.3645283864E+01  4.9398771636E+00  1.6664489090E+00  1.1418158327E+00  8.4275251565E-01
  2.4688963211E+04  1.3730396285E+01  4.9388955280E+00  1.6868057113E+00  1.1518852484E+00  8.4382534027E-01
  2.4785953177E+04  1.3815702764E+01  4.9379179351E+00  1.7073295033E+00  1.1619720049E+00  8.4488756733E-01
  2.4882943144E+04  1.3901202983E+01  4.9369443525E+00  1.7280209887E+00  1.1720755321E+00  8.4593929230E-01
  2.4979933110E+04  1.3987111786E+01  4.9360143304E+00  1.7488808713E+00  1.1821990688E+00  8.4698061092E-01
  2.5076923077E+04  1.4073411154E+01  4.9351238521E+00  1.7700018046E+00  1.1923835588E+00  8.4801162023E-01
  2.5173913043E+04  1.4159906762E+01  4.9342369709E+00  1.7913186546E+00  1.2025945019E+00  8.4903243687E-01
  2.5270903010E+04  1.4246598298E+01  4.9333536587E+00  1.8128084044E+00  1.2128204760E+00  8.5004315810E-01
  2.5367892977E+04  1.4333522922E+01  4.9324808484E+00  1.8344717803E+00  1.2230616106E+00  8.5104387179E-01
  2.5464882943E+04  1.4421005603E+01  4.9316784337E+00  1.8563095090E+00  1.2333234883E+00  8.5203466625E-01
  2.5561872910E+04  1.4508686609E+01  4.9308791992E+00  1.8783223172E+00  1.2435988766E+00  8.5301563012E-01
  2.5658862876E+04  1.4596565633E+01  4.9300831203E+00  1.9005109319E+00  1.2538872102E+00  8.5398685236E-01
  2.5755852843E+04  1.4684642372E+01  4.9292901726E+00  1.9228760806E+00  1.2641879256E+00  8.5494842213E-01
  2.5852842809E+04  1.4773141375E+01  4.9285428189E+00  1.9454184906E+00  1.2745049761E+00  8.5590042879E-01
  2.5949832776E+04  1.4861998239E+01  4.9278282173E+00  1.9681388896E+00  1.2848366137E+00  8.5684296181E-01
  2.6046822742E+04  1.4951055073E+01  4.9271163846E+00  1.9910380055E+00  1.2951791436E+00  8.5777611073E-01
  2.6143812709E+04  1.5040311578E+01  4.9264072999E+00  2.0141165664E+00  1.3055320115E+00  8.5869996512E-01
  2.6240802676E+04  1.5129768233E+01  4.9257010924E+00  2.0373753007E+00  1.3158946821E+00  8.5961461452E-01
  2.6337792642E+04  1.5219790449E+01  4.9250682589E+00  2.0608149369E+00  1.3262744969E+00  8.6052014629E-01
  2.6434782609E+04  1.5310014442E+01  4.9244378324E+00  2.0844362037E+00  1.3366631883E+00  8.6141664008E-01
  2.6531772575E+04  1.5400439923E+01  4.9238097949E+00  2.1082398301E+00  1.3470602128E+00  8.6230417906E-01
  2.6628762542E+04  1.5491066600E+01  4.9231841289E+00  2.1322265452E+00  1.3574650289E+00  8.6318284705E-01
  2.6725752508E+04  1.5582012400E+01  4.9225843028E+00  2.1563970785E+00  1.3678798227E+00  8.6405272795E-01
  2.6822742475E+04  1.5673391968E+01  4.9220325802E+00  2.1807521594E+00  1.3783067882E+00  8.6491390569E-01
  2.6919732441E+04  1.5764974694E+01  4.9214829106E+00  2.2052925179E+00  1.3887401249E+00  8.6576646392E-01
  2.7016722408E+04  1.5856760295E+01  4.9209352788E+00  2.2300188838E+00  1.3991793033E+00  8.6661048420E-01
  2.7113712375E+04  1.5948748489E+01  4.9203896702E+00  2.2549319873E+00  1.4096237969E+00  8.6744604788E-01
  2.7210702341E+04  1.6041136604E+01  4.9198864364E+00  2.2800325589E+00  1.4200779941E+00  8.6827321521E-01
  2.7307692308E+04  1.6133863926E+01  4.9194125824E+00  2.3053213291E+00  1.4305399672E+00  8.6909233155E-01
  2.7404682274E+04  1.6226795655E+01  4.9189404537E+00  2.3307992769E+00  1.4410059753E+00  8.6990428771E-01
  2.7501672241E+04  1.6319931516E+01  4.9184700382E+00  2.3564679466E+00  1.4514758112E+00  8.7070984693E-01
  2.7598662207E+04  1.6413271236E+01  4.9180013234E+00  2.3823270321E+00  1.4619485654E+00  8.7150903420E-01
  2.7695652174E+04  1.6507056722E+01  4.9175853879E+00  2.4083772650E+00  1.4724302381E+00  8.7230187655E-01
  2.7792642140E+04  1.6601120883E+01  4.9171863491E+00  2.4346193772E+00  1.4829159472E+00  8.7308843102E-01
  2.7889632107E+04  1.6695390569E+01  4.9167887325E+00  2.4610541006E+00  1.4934032485E+00  8.7386875416E-01
  2.7986622074E+04  1.6789865512E+01  4.9163925284E+00  2.4876821674E+00  1.5038916459E+00  8.7464290207E-01
  2.8083612040E+04  1.6884545444E+01  4.9159977267E+00  2.5145043101E+00  1.5143806468E+00  8.7541093043E-01
  2.8180602007E+04  1.6979685599E+01  4.9156602571E+00  2.5415212611E+00  1.5248772056E+00  8.7617289444E-01
  2.8277591973E+04  1.7075074388E+01  4.9153331549E+00  2.5687337533E+00  1.5353747877E+00  8.7692884886E-01
  2.8374581940E+04  1.7170669683E+01  4.9150071944E+00  2.5961425197E+00  1.5458717002E+00  8.7767884799E-01
  2.8471571906E+04  1.7266471225E+01  4.9146823678E+00  2.6237482935E+00  1.5563674657E+00  8.7842294569E-01
  2.8568561873E+04  1.7362478754E+01  4.9143586671E+00  2.6515518080E+00  1.5668616102E+00  8.7916119537E-01
  2.8665551839E+04  1.7458933486E+01  4.9140912625E+00  2.6795537967E+00  1.5773613199E+00  8.7989364999E-01
  2.8762541806E+04  1.7555633406E+01  4.9138333803E+00  2.7077549934E+00  1.5878598372E+00  8.8062036206E-01
  2.8859531773E+04  1.7652540680E+01  4.9135763797E+00  2.7361561322E+00  1.5983555167E+00  8.8134138364E-01
  2.8956521739E+04  1.7749655055E+01  4.9133202547E+00  2.7647579470E+00  1.6088479001E+00  8.8205676635E-01
  2.9053511706E+04  1.7846976277E+01  4.9130649994E+00  2.7935611722E+00  1.6193365335E+00  8.8276656136E-01
  2.9150501672E+04  1.7944708475E+01  4.9128596629E+00  2.8225665424E+00  1.6298280512E+00  8.8347081941E-01
  2.9247491639E+04  1.8042704769E+01  4.9126684336E+00  2.8517747922E+00  1.6403170236E+00  8.8416959077E-01
  2.9344481605E+04  1.8140909128E+01  4.9124778448E+00  2.8811866565E+00  1.6508010872E+00  8.8486292530E-01
  2.9441471572E+04  1.8239321304E+01  4.9122878922E+00  2.9108028704E+00  1.6612798043E+00  8.8555087240E-01
  2.9538461538E+04  1.8337941050E+01  4.9120985717E+00  2.9406241692E+00  1.6717527413E+00  8.8623348105E-01
  2.9635451505E+04  1.8436916975E+01  4.9119476845E+00  2.9706512883E+00  1.6822251418E+00  8.8691079979E-01
  2.9732441472E+04  1.8536193667E+01  4.9118206800E+00  3.0008849634E+00  1.6926945659E+00  8.8758287680E-01
  2.9829431438E+04  1.8635678996E+01  4.9116940925E+00  3.0313259302E+00  1.7031571114E+00  8.8824976063E-01
  2.9926421405E+04  1.8735372720E+01  4.9115679192E+00  3.0619749248E+00  1.7136123615E+00  8.8891149970E-01
  3.0023411371E+04  1.8835274599E+01  4.9114421573E+00  3.0928880122E+00  1.7240770961E+00  8.8956814191E-01
  3.0120401338E+04  1.8935466955E+01  4.9113384436E+00  3.1241869123E+00  1.7345911864E+00  8.9021973473E-01
  3.0217391304E+04  1.9036014376E+01  4.9112733323E+00  3.1556999727E+00  1.7451029524E+00  8.9086632513E-01
  3.0314381271E+04  1.9136770922E+01  4.9112084306E+00  3.1874279603E+00  1.7556060332E+00  8.9150795962E-01
  3.0411371237E+04  1.9237736359E+01  4.9111437370E+00  3.2193716421E+00  1.7661000239E+00  8.9214468423E-01
  3.0508361204E+04  1.9338910450E+01  4.9110792502E+00  3.2515317854E+00  1.7765845235E+00  8.9277654455E-01
  3.0605351171E+04  1.9440296163E+01  4.9110157692E+00  3.2839091578E+00  1.7870592687E+00  8.9340358570E-01
  3.0702341137E+04  1.9542122475E+01  4.9110102617E+00  3.3165045271E+00  1.7975334429E+00  8.9402585234E-01
  3.0799331104E+04  1.9644158452E+01  4.9110047717E+00  3.3493186614E+00  1.8079971274E+00  8.9464338872E-01
  3.0896321070E+04  1.9746403865E+01  4.9109992989E+00  3.3823523288E+00  1.8184499392E+00  8.9525623859E-01
  3.0993311037E+04  1.9848858483E+01  4.9109938432E+00  3.4156062980E+00  1.8288914996E+00  8.9586444529E-01
  3.1090301003E+04  1.9951522078E+01  4.9109884047E+00  3.4490813377E+00  1.8393214345E+00  8.9646805173E-01
  3.1187290970E+04  2.0054534784E+01  4.9110158855E+00  3.4827782170E+00  1.8497452358E+00  8.9706710037E-01
