#[MATERIAL DEFINITION FOR MC-GPU: interaction mean free path and sampling data from PENELOPE 2006]
#[MATERIAL NAME]
# Marrow_Bone08_20                                              
#[NOMINAL DENSITY (g/cm^3)]
#   1.51990000
#[NUMBER OF DATA VALUES]
#   1495
#[MEAN FREE PATHS (cm) (ie, average distance between interactions)]
#[Energy (eV)     | Rayleigh        | Compton         | Photoelectric   | TOTAL (+pair prod) (cm) | Rayleigh: max cumul prob F^2]
  5.0000000000E+03  8.9309858595E-01  5.9589795457E+00  4.6142847892E-03  4.5870334835E-03  2.6515563968E-01
  5.0969899666E+03  9.0989020148E-01  5.9034725622E+00  4.8616556189E-03  4.8318592432E-03  2.7004888541E-01
  5.1939799331E+03  9.2679577378E-01  5.8502751406E+00  5.1171986677E-03  5.0846766626E-03  2.7489532681E-01
  5.2909698997E+03  9.4381337185E-01  5.7992512274E+00  5.3810214569E-03  5.3455842752E-03  2.7969650070E-01
  5.3879598662E+03  9.6094101398E-01  5.7502746017E+00  5.6532308328E-03  5.6146796614E-03  2.8445385896E-01
  5.4849498328E+03  9.7817667540E-01  5.7032280127E+00  5.9339999609E-03  5.8921254963E-03  2.8916876678E-01
  5.5819397993E+03  9.9551829553E-01  5.6580024065E+00  6.2241751000E-03  6.1787473344E-03  2.9384257698E-01
  5.6789297659E+03  1.0129637851E+00  5.6144962323E+00  6.5231160316E-03  6.4739048472E-03  2.9847661740E-01
  5.7759197324E+03  1.0305110331E+00  5.5726148180E+00  6.8309286439E-03  6.7776933608E-03  3.0307209381E-01
  5.8729096990E+03  1.0481579134E+00  5.5322698075E+00  7.1477182190E-03  7.0902072866E-03  3.0763015582E-01
  5.9698996656E+03  1.0659022944E+00  5.4933786500E+00  7.4735894457E-03  7.4115401293E-03  3.1215194584E-01
  6.0668896321E+03  1.0837421964E+00  5.4558639798E+00  7.8093743049E-03  7.7424999619E-03  3.1663853666E-01
  6.1638795987E+03  1.1016760621E+00  5.4196529436E+00  8.1548357977E-03  8.0828428301E-03  3.2109089510E-01
  6.2608695652E+03  1.1197027272E+00  5.3846769071E+00  8.5110549456E-03  8.4336193072E-03  3.2550997639E-01
  6.3578595318E+03  1.1378210328E+00  5.3508715417E+00  8.8807711423E-03  8.7975049103E-03  3.2989674833E-01
  6.4548494983E+03  1.1560354700E+00  5.3182048840E+00  9.2605343304E-03  9.1710988152E-03  3.3425202355E-01
  6.5518394649E+03  1.1743463159E+00  5.2866256614E+00  9.6521941765E-03  9.5562022974E-03  3.3857651850E-01
  6.6488294314E+03  1.1927465782E+00  5.2560510313E+00  1.0054905145E-02  9.9519713254E-03  3.4287095272E-01
  6.7458193980E+03  1.2112349669E+00  5.2264306480E+00  1.0468174907E-02  1.0357909846E-02  3.4713604810E-01
  6.8428093645E+03  1.2298101739E+00  5.1977171868E+00  1.0892120879E-02  1.0774119402E-02  3.5137252821E-01
  6.9397993311E+03  1.2484708762E+00  5.1698661356E+00  1.1326860047E-02  1.1200700672E-02  3.5558108232E-01
  7.0367892977E+03  1.2672163894E+00  5.1428384363E+00  1.1773323191E-02  1.1638549229E-02  3.5976222764E-01
  7.1337792642E+03  1.2860651346E+00  5.1166772837E+00  1.2232234487E-02  1.2088358548E-02  3.6391644098E-01
  7.2307692308E+03  1.3049973965E+00  5.0912609103E+00  1.2702420163E-02  1.2548963649E-02  3.6804420565E-01
  7.3277591973E+03  1.3240121546E+00  5.0665537247E+00  1.3183998589E-02  1.3020464492E-02  3.7214601019E-01
  7.4247491639E+03  1.3431083416E+00  5.0425222097E+00  1.3677087737E-02  1.3502960167E-02  3.7622234735E-01
  7.5217391304E+03  1.3622967564E+00  5.0191792235E+00  1.4181805189E-02  1.3996550486E-02  3.8027365024E-01
  7.6187290970E+03  1.3815808065E+00  4.9965071494E+00  1.4698268143E-02  1.4501333640E-02  3.8430024042E-01
  7.7157190635E+03  1.4009445922E+00  4.9744209673E+00  1.5226593417E-02  1.5017404236E-02  3.8830243657E-01
  7.8127090301E+03  1.4203868810E+00  4.9528939937E+00  1.5766897460E-02  1.5544857892E-02  3.9228056440E-01
  7.9096989967E+03  1.4399256627E+00  4.9319649695E+00  1.6319296351E-02  1.6083792428E-02  3.9623495597E-01
  8.0066889632E+03  1.4595553621E+00  4.9115902332E+00  1.6884579688E-02  1.6634955465E-02  4.0016592659E-01
  8.1036789298E+03  1.4792616444E+00  4.8917021348E+00  1.7471587549E-02  1.7206899024E-02  4.0407370026E-01
  8.2006688963E+03  1.4990494379E+00  4.8722982501E+00  1.8071609163E-02  1.7791141927E-02  4.0795848501E-01
  8.2976588629E+03  1.5189445077E+00  4.8534342043E+00  1.8684772617E-02  1.8387792123E-02  4.1182049663E-01
  8.3946488294E+03  1.5389148841E+00  4.8349948510E+00  1.9311205707E-02  1.8996946164E-02  4.1565995792E-01
  8.4916387960E+03  1.5589605103E+00  4.8169659655E+00  1.9951035937E-02  1.9618705283E-02  4.1947707930E-01
  8.5886287625E+03  1.5791220799E+00  4.7994398605E+00  2.0604390526E-02  2.0253178419E-02  4.2327200433E-01
  8.6856187291E+03  1.5993572994E+00  4.7822850918E+00  2.1271396409E-02  2.0900456738E-02  4.2704486811E-01
  8.7826086957E+03  1.6196699596E+00  4.7654997874E+00  2.1952180246E-02  2.1560639677E-02  4.3079581344E-01
  8.8795986622E+03  1.6400982025E+00  4.7491615980E+00  2.2646868418E-02  2.2233833981E-02  4.3452499180E-01
  8.9765886288E+03  1.6605979249E+00  4.7331486719E+00  2.3355587037E-02  2.2920126719E-02  4.3823256887E-01
  9.0735785953E+03  1.6811866865E+00  4.7174912050E+00  2.4082197038E-02  2.3623212279E-02  4.4191861824E-01
  9.1705685619E+03  1.7018808357E+00  4.7022105381E+00  2.4824496156E-02  2.4340943086E-02  4.4558319362E-01
  9.2675585284E+03  1.7226438946E+00  4.6872155081E+00  2.5581456063E-02  2.5072292430E-02  4.4922635732E-01
  9.3645484950E+03  1.7435184252E+00  4.6725846604E+00  2.6353207013E-02  2.5817369545E-02  4.5284817965E-01
  9.4615384615E+03  1.7644772921E+00  4.6582488022E+00  2.7139879017E-02  2.6576264092E-02  4.5644873839E-01
  9.5585284281E+03  1.7855159694E+00  4.6441907381E+00  2.7941601854E-02  2.7349070619E-02  4.6002811828E-01
  9.6555183946E+03  1.8066724226E+00  4.6304710202E+00  2.8758505064E-02  2.8135895694E-02  4.6358641056E-01
  9.7525083612E+03  1.8278936386E+00  4.6169813031E+00  2.9590717961E-02  2.8936817380E-02  4.6712370609E-01
  9.8494983278E+03  1.8492341910E+00  4.6038110128E+00  3.0438369627E-02  2.9751946239E-02  4.7064003137E-01
  9.9464882943E+03  1.8706533813E+00  4.5908779971E+00  3.1301588919E-02  3.0581361610E-02  4.7413538947E-01
  1.0043478261E+04  1.8921673211E+00  4.5782028083E+00  3.2184426688E-02  3.1428900496E-02  4.7760979309E-01
  1.0140468227E+04  1.9137858612E+00  4.5657917185E+00  3.3088210525E-02  3.2295788694E-02  4.8106326263E-01
  1.0237458194E+04  1.9354767567E+00  4.5535865408E+00  3.4008359718E-02  3.3177608066E-02  4.8449582578E-01
  1.0334448161E+04  1.9572962573E+00  4.5416665456E+00  3.4945010140E-02  3.4074474456E-02  4.8790751712E-01
  1.0431438127E+04  1.9791732041E+00  4.5299165820E+00  3.5898297476E-02  3.4986454533E-02  4.9129837769E-01
  1.0528428094E+04  2.0011899901E+00  4.5184517883E+00  3.6868357224E-02  3.5913673804E-02  4.9466845127E-01
  1.0625418060E+04  2.0232676337E+00  4.5071503887E+00  3.7855324698E-02  3.6856192305E-02  4.9801774413E-01
  1.0722408027E+04  2.0454722803E+00  4.4961001022E+00  3.8859335029E-02  3.7814128671E-02  5.0134624539E-01
  1.0819397993E+04  2.0677516856E+00  4.4852218018E+00  3.9880523170E-02  3.8787550497E-02  5.0465395205E-01
  1.0916387960E+04  2.0901481198E+00  4.4745671499E+00  4.0919023891E-02  3.9776565615E-02  5.0794086832E-01
  1.1013377926E+04  2.1126300954E+00  4.4640880739E+00  4.1974971789E-02  4.0781247757E-02  5.1120700521E-01
  1.1110367893E+04  2.1352222634E+00  4.4538113623E+00  4.3048501283E-02  4.1801695663E-02  5.1445238021E-01
  1.1207357860E+04  2.1579073532E+00  4.4437091028E+00  4.4142432167E-02  4.2840516570E-02  5.1767701696E-01
  1.1304347826E+04  2.1806992196E+00  4.4337937230E+00  4.5261413572E-02  4.3902042133E-02  5.2088093107E-01
  1.1401337793E+04  2.2035876954E+00  4.4240472273E+00  4.6398790408E-02  4.4979948216E-02  5.2406411174E-01
  1.1498327759E+04  2.2265832422E+00  4.4144775722E+00  4.7554703688E-02  4.6074328819E-02  5.2722655167E-01
  1.1595317726E+04  2.2496750953E+00  4.4050670420E+00  4.8729294280E-02  4.7185265353E-02  5.3036825039E-01
  1.1692307692E+04  2.2728783206E+00  4.3958284292E+00  4.9922702911E-02  4.8312852685E-02  5.3348921398E-01
  1.1789297659E+04  2.2961732538E+00  4.3867352283E+00  5.1135070170E-02  4.9457164628E-02  5.3658945476E-01
  1.1886287625E+04  2.3195881711E+00  4.3778138311E+00  5.2366536505E-02  5.0618302276E-02  5.3966899103E-01
  1.1983277592E+04  2.3430855904E+00  4.3690204014E+00  5.3617242228E-02  5.1796325831E-02  5.4272783656E-01
  1.2080267559E+04  2.3667162273E+00  4.3604031854E+00  5.4887327516E-02  5.2991349215E-02  5.4576598720E-01
  1.2177257525E+04  2.3904152334E+00  4.3518929708E+00  5.6176932409E-02  5.4203411687E-02  5.4878344285E-01
  1.2274247492E+04  2.4142656305E+00  4.3435676362E+00  5.7486196813E-02  5.5432647982E-02  5.5178020978E-01
  1.2371237458E+04  2.4381650104E+00  4.3353250124E+00  5.8815260503E-02  5.6679067630E-02  5.5475630041E-01
  1.2468227425E+04  2.4622392275E+00  4.3272799532E+00  6.0164263121E-02  5.7942835701E-02  5.5771173297E-01
  1.2565217391E+04  2.4863618405E+00  4.3193119906E+00  6.1542998321E-02  5.9232882559E-02  5.6064653442E-01
  1.2662207358E+04  2.5106398080E+00  4.3115148032E+00  6.2947110337E-02  6.0545168133E-02  5.6356074979E-01
  1.2759197324E+04  2.5349916031E+00  4.3038126927E+00  6.4372132246E-02  6.1875431870E-02  5.6645438711E-01
  1.2856187291E+04  2.5594703089E+00  4.2962489279E+00  6.5818212030E-02  6.3223793017E-02  5.6932745214E-01
  1.2953177258E+04  2.5840561229E+00  4.2888035832E+00  6.7285497576E-02  6.4590314639E-02  5.7217995678E-01
  1.3050167224E+04  2.6087336961E+00  4.2814608137E+00  6.8774136671E-02  6.5975060572E-02  5.7501191881E-01
  1.3147157191E+04  2.6335584219E+00  4.2742636636E+00  7.0284277010E-02  6.7378152879E-02  5.7782336170E-01
  1.3244147157E+04  2.6584343094E+00  4.2671313794E+00  7.1816066190E-02  6.8799584236E-02  5.8061431435E-01
  1.3341137124E+04  2.6835011285E+00  4.2601729119E+00  7.3369651715E-02  7.0239549696E-02  5.8338481089E-01
  1.3438127090E+04  2.7086219194E+00  4.2532774390E+00  7.4945180997E-02  7.1698000737E-02  5.8613489046E-01
  1.3535117057E+04  2.7338864568E+00  4.2465122118E+00  7.6542801352E-02  7.3175089013E-02  5.8886459701E-01
  1.3632107023E+04  2.7592571230E+00  4.2398459995E+00  7.8162660006E-02  7.4670850321E-02  5.9157397908E-01
  1.3729096990E+04  2.7847161915E+00  4.2332632948E+00  7.9805393731E-02  7.6185781517E-02  5.9426308968E-01
  1.3826086957E+04  2.8103417264E+00  4.2268191657E+00  8.1471517655E-02  7.7720360216E-02  5.9693198389E-01
  1.3923076923E+04  2.8360214646E+00  4.2204297916E+00  8.3160362362E-02  7.9273795210E-02  5.9958068920E-01
  1.4020066890E+04  2.8618770887E+00  4.2141798131E+00  8.4872075208E-02  8.0846275934E-02  6.0220922727E-01
  1.4117056856E+04  2.8878178724E+00  4.2080029807E+00  8.6606803462E-02  8.2437773035E-02  6.0481762547E-01
  1.4214046823E+04  2.9138641066E+00  4.2019115403E+00  8.8364694301E-02  8.4048369480E-02  6.0740591661E-01
  1.4311036789E+04  2.9400709957E+00  4.1959408876E+00  9.0145894819E-02  8.5678188520E-02  6.0997413879E-01
  1.4408026756E+04  2.9663341855E+00  4.1900189614E+00  9.1950552018E-02  8.7327173578E-02  6.1252233513E-01
  1.4505016722E+04  2.9927812673E+00  4.1842280898E+00  9.3778812817E-02  8.8995529483E-02  6.1505055362E-01
  1.4602006689E+04  3.0193168641E+00  4.1785038794E+00  9.5630824048E-02  9.0683204672E-02  6.1755884691E-01
  1.4698996656E+04  3.0459486235E+00  4.1728497852E+00  9.7506732459E-02  9.2390262896E-02  6.2004727210E-01
  1.4795986622E+04  3.0727617449E+00  4.1673176279E+00  9.9406684711E-02  9.4116864897E-02  6.2251589058E-01
  1.4892976589E+04  3.0996333950E+00  4.1618288790E+00  1.0133082738E-01  9.5862912529E-02  6.2496476441E-01
  1.4989966555E+04  3.1266681021E+00  4.1564462501E+00  1.0327930697E-01  9.7628590563E-02  6.2739393957E-01
  1.5086956522E+04  3.1538234419E+00  4.1511420225E+00  1.0527276099E-01  9.9432178450E-02  6.2980346058E-01
  1.5183946488E+04  3.1810383451E+00  4.1458784893E+00  1.0729390354E-01  1.0125802769E-01  6.3219337703E-01
  1.5280936455E+04  3.2084762181E+00  4.1407516162E+00  1.0934056417E-01  1.0310433668E-01  6.3456374326E-01
  1.5377926421E+04  3.2359785842E+00  4.1356656087E+00  1.1141289924E-01  1.0497094141E-01  6.3691461825E-01
  1.5474916388E+04  3.2635880018E+00  4.1306450029E+00  1.1351106504E-01  1.0685795093E-01  6.3924606534E-01
  1.5571906355E+04  3.2913789054E+00  4.1257318641E+00  1.1563521781E-01  1.0876552574E-01  6.4155815210E-01
  1.5668896321E+04  3.3192316973E+00  4.1208550217E+00  1.1778551375E-01  1.1069353800E-01  6.4385095012E-01
  1.5765886288E+04  3.3472349017E+00  4.1160652604E+00  1.1996210901E-01  1.1264216836E-01  6.4612453486E-01
  1.5862876254E+04  3.3753784929E+00  4.1113550480E+00  1.2216515967E-01  1.1461145000E-01  6.4837898536E-01
  1.5959866221E+04  3.4035849984E+00  4.1066788884E+00  1.2439482180E-01  1.1660130352E-01  6.5061437581E-01
  1.6056856187E+04  3.4319773587E+00  4.1021064487E+00  1.2665125140E-01  1.1861197207E-01  6.5283076981E-01
  1.6153846154E+04  3.4604768353E+00  4.0975910613E+00  1.2893460442E-01  1.2064337024E-01  6.5502823400E-01
  1.6250836120E+04  3.4890402459E+00  4.0931076296E+00  1.3124503677E-01  1.2269546235E-01  6.5720683925E-01
  1.6347826087E+04  3.5178168883E+00  4.0887396580E+00  1.3358270431E-01  1.2476854773E-01  6.5936666044E-01
  1.6444816054E+04  3.5466753527E+00  4.0844114918E+00  1.3594776286E-01  1.2686243551E-01  6.6150777629E-01
  1.6541806020E+04  3.5756003109E+00  4.0801141827E+00  1.3834036818E-01  1.2897712980E-01  6.6363026919E-01
  1.6638795987E+04  3.6047545812E+00  4.0759375800E+00  1.4076067600E-01  1.3111296854E-01  6.6573422500E-01
  1.6735785953E+04  3.6339750420E+00  4.0717894908E+00  1.4320884199E-01  1.3326968222E-01  6.6781973292E-01
  1.6832775920E+04  3.6632729304E+00  4.0676758795E+00  1.4568502178E-01  1.3544731944E-01  6.6988688463E-01
  1.6929765886E+04  3.6927911138E+00  4.0636743857E+00  1.4818937095E-01  1.3764619428E-01  6.7193575970E-01
  1.7026755853E+04  3.7223764866E+00  4.0596996536E+00  1.5072204505E-01  1.3986603315E-01  6.7396643823E-01
  1.7123745819E+04  3.7520418336E+00  4.0557584341E+00  1.5328319957E-01  1.4210688493E-01  6.7597900667E-01
  1.7220735786E+04  3.7819267591E+00  4.0519256138E+00  1.5587298996E-01  1.4436907052E-01  6.7797355478E-01
  1.7317725753E+04  3.8118798672E+00  4.0481179118E+00  1.5849157163E-01  1.4665229672E-01  6.7995017552E-01
  1.7414715719E+04  3.8419069908E+00  4.0443382797E+00  1.6113909992E-01  1.4895659414E-01  6.8190896485E-01
  1.7511705686E+04  3.8721613815E+00  4.0406680649E+00  1.6381822492E-01  1.5128445545E-01  6.8385002158E-01
  1.7608695652E+04  3.9024849425E+00  4.0370214251E+00  1.6654510334E-01  1.5364915580E-01  6.8577344725E-01
  1.7705685619E+04  3.9328774496E+00  4.0333980801E+00  1.6930197034E-01  1.5603539129E-01  6.8767934590E-01
  1.7802675585E+04  3.9634942942E+00  4.0298796617E+00  1.7208898798E-01  1.5844355054E-01  6.8956889443E-01
  1.7899665552E+04  3.9941907827E+00  4.0263884080E+00  1.7490631829E-01  1.6087331080E-01  6.9144364862E-01
  1.7996655518E+04  4.0249572013E+00  4.0229190210E+00  1.7775412328E-01  1.6332466000E-01  6.9330366414E-01
  1.8093645485E+04  4.0559240928E+00  4.0195393184E+00  1.8063256495E-01  1.6579794118E-01  6.9514898976E-01
  1.8190635452E+04  4.0869957976E+00  4.0161980648E+00  1.8354180525E-01  1.6829293082E-01  6.9697967700E-01
  1.8287625418E+04  4.1181384082E+00  4.0128773344E+00  1.8648200612E-01  1.7080955009E-01  6.9879578001E-01
  1.8384615385E+04  4.1494488525E+00  4.0096269306E+00  1.8945332948E-01  1.7334806622E-01  7.0059735547E-01
  1.8481605351E+04  4.1808979615E+00  4.0064305863E+00  1.9245593722E-01  1.7590841557E-01  7.0238446248E-01
  1.8578595318E+04  4.2124189442E+00  4.0032535005E+00  1.9548999121E-01  1.7849042221E-01  7.0415716246E-01
  1.8675585284E+04  4.2440663082E+00  4.0001233575E+00  1.9855565329E-01  1.8109424250E-01  7.0591552125E-01
  1.8772575251E+04  4.2758949110E+00  3.9970671071E+00  2.0165597775E-01  1.8372244370E-01  7.0765961286E-01
  1.8869565217E+04  4.3077963471E+00  3.9940289235E+00  2.0478979777E-01  1.8637360153E-01  7.0938951371E-01
  1.8966555184E+04  4.3397738707E+00  3.9910103564E+00  2.0795582261E-01  1.8904651245E-01  7.1110530173E-01
  1.9063545151E+04  4.3719839589E+00  3.9880896408E+00  2.1115421519E-01  1.9174165332E-01  7.1280705625E-01
  1.9160535117E+04  4.4042678321E+00  3.9851858685E+00  2.1438513845E-01  1.9445854391E-01  7.1449485790E-01
  1.9257525084E+04  4.4366252844E+00  3.9822988562E+00  2.1764875529E-01  1.9719717488E-01  7.1616878860E-01
  1.9354515050E+04  4.4691621080E+00  3.9794810210E+00  2.2094522859E-01  1.9995788022E-01  7.1782893139E-01
  1.9451505017E+04  4.5018303047E+00  3.9767074035E+00  2.2427472121E-01  2.0274050599E-01  7.1947536783E-01
  1.9548494983E+04  4.5345730272E+00  3.9739495004E+00  2.2763739601E-01  2.0554485692E-01  7.2110815684E-01
  1.9645484950E+04  4.5674260641E+00  3.9712248465E+00  2.3103341580E-01  2.0837104108E-01  7.2272735775E-01
  1.9742474916E+04  4.6004803747E+00  3.9685773463E+00  2.3446294339E-01  2.1121936534E-01  7.2433303396E-01
  1.9839464883E+04  4.6336101494E+00  3.9659445729E+00  2.3792614156E-01  2.1408938659E-01  7.2592525089E-01
  1.9936454849E+04  4.6668151902E+00  3.9633263729E+00  2.4142317308E-01  2.1698108474E-01  7.2750407596E-01
  2.0033444816E+04  4.7002146179E+00  3.9607801936E+00  2.4496197497E-01  2.1990114171E-01  7.2906957843E-01
  2.0130434783E+04  4.7337334725E+00  3.9582687418E+00  2.4855008113E-01  2.2285515659E-01  7.3062182935E-01
  2.0227424749E+04  4.7673285294E+00  3.9557709423E+00  2.5217307025E-01  2.2583116471E-01  7.3216090144E-01
  2.0324414716E+04  4.8010301094E+00  3.9533010334E+00  2.5583111110E-01  2.2882925835E-01  7.3368686904E-01
  2.0421404682E+04  4.8349418995E+00  3.9509071222E+00  2.5952437245E-01  2.3184982215E-01  7.3519980795E-01
  2.0518394649E+04  4.8689308406E+00  3.9485259931E+00  2.6325302305E-01  2.3489232425E-01  7.3669979544E-01
  2.0615384615E+04  4.9029967421E+00  3.9461575180E+00  2.6701723166E-01  2.3795673486E-01  7.3818691009E-01
  2.0712374582E+04  4.9372356906E+00  3.9438453193E+00  2.7081716702E-01  2.4104341537E-01  7.3966123174E-01
  2.0809364548E+04  4.9716230350E+00  3.9415772574E+00  2.7465299791E-01  2.4415224895E-01  7.4112284142E-01
  2.0906354515E+04  5.0060883100E+00  3.9393210373E+00  2.7852489305E-01  2.4728291871E-01  7.4257182126E-01
  2.1003344482E+04  5.0406313294E+00  3.9370765428E+00  2.8243302121E-01  2.5043538863E-01  7.4400825402E-01
  2.1100334448E+04  5.0754056391E+00  3.9349110684E+00  2.8637755112E-01  2.5361028487E-01  7.4543221673E-01
  2.1197324415E+04  5.1102748259E+00  3.9327637174E+00  2.9035865152E-01  2.5680700024E-01  7.4684378293E-01
  2.1294314381E+04  5.1452227485E+00  3.9306273332E+00  2.9437649116E-01  2.6002542634E-01  7.4824302757E-01
  2.1391304348E+04  5.1802786030E+00  3.9285143386E+00  2.9843123878E-01  2.6326565315E-01  7.4963002695E-01
  2.1488294314E+04  5.2155562378E+00  3.9264726304E+00  3.0252306310E-01  2.6652816273E-01  7.5100485859E-01
  2.1585284281E+04  5.2509136182E+00  3.9244411709E+00  3.0665213285E-01  2.6981228119E-01  7.5236760122E-01
  2.1682274247E+04  5.2863505649E+00  3.9224198630E+00  3.1081861678E-01  2.7311796199E-01  7.5371833466E-01
  2.1779264214E+04  5.3219318977E+00  3.9204353831E+00  3.1502268360E-01  2.7644546542E-01  7.5505713975E-01
  2.1876254181E+04  5.3577032858E+00  3.9185058101E+00  3.1926450203E-01  2.7979497517E-01  7.5638409828E-01
  2.1973244147E+04  5.3935552711E+00  3.9165857166E+00  3.2354424081E-01  2.8316592885E-01  7.5769929293E-01
  2.2070234114E+04  5.4294876784E+00  3.9146750143E+00  3.2786206864E-01  2.8655827398E-01  7.5900280721E-01
  2.2167224080E+04  5.4655904826E+00  3.9128094988E+00  3.3221815424E-01  2.8997240727E-01  7.6029472534E-01
  2.2264214047E+04  5.5018620678E+00  3.9109877552E+00  3.3661266633E-01  2.9340828401E-01  7.6157513226E-01
  2.2361204013E+04  5.5382151270E+00  3.9091747732E+00  3.4104595715E-01  2.9686555668E-01  7.6284411353E-01
  2.2458193980E+04  5.5746494885E+00  3.9073704728E+00  3.4555353640E-01  3.0037086939E-01  7.6410175483E-01
  2.2555183946E+04  5.6112690432E+00  3.9056148205E+00  3.5010083098E-01  3.0389830808E-01  7.6534813700E-01
  2.2652173913E+04  5.6480473244E+00  3.9038968551E+00  3.5468801714E-01  3.0744769297E-01  7.6658333827E-01
  2.2749163880E+04  5.6849079809E+00  3.9021869807E+00  3.5931527118E-01  3.1101856598E-01  7.6780743773E-01
  2.2846153846E+04  5.7218508448E+00  3.9004851249E+00  3.6398276939E-01  3.1461086299E-01  7.6902051528E-01
  2.2943143813E+04  5.7589816929E+00  3.8988306516E+00  3.6869068807E-01  3.1822510451E-01  7.7022265155E-01
  2.3040133779E+04  5.7962732208E+00  3.8972126486E+00  3.7343920355E-01  3.2186109396E-01  7.7141392786E-01
  2.3137123746E+04  5.8336480500E+00  3.8956021097E+00  3.7822849218E-01  3.2551834134E-01  7.7259442612E-01
  2.3234113712E+04  5.8711060161E+00  3.8939989695E+00  3.8305873031E-01  3.2919677676E-01  7.7376422881E-01
  2.3331103679E+04  5.9087419416E+00  3.8924373781E+00  3.8793009432E-01  3.3289688052E-01  7.7492341892E-01
  2.3428093645E+04  5.9465533162E+00  3.8909157399E+00  3.9284276059E-01  3.3661858673E-01  7.7607207987E-01
  2.3525083612E+04  5.9844489424E+00  3.8894009793E+00  3.9779690553E-01  3.4036129925E-01  7.7721029546E-01
  2.3622073579E+04  6.0224286595E+00  3.8878930370E+00  4.0279270556E-01  3.4412494256E-01  7.7833814986E-01
  2.3719063545E+04  6.0605626645E+00  3.8864163905E+00  4.0783033711E-01  3.4790986811E-01  7.7945572748E-01
  2.3816053512E+04  6.0989005321E+00  3.8849877217E+00  4.1290997663E-01  3.5171631976E-01  7.8056311274E-01
  2.3913043478E+04  6.1373236260E+00  3.8835653812E+00  4.1803180060E-01  3.5554350534E-01  7.8166038614E-01
  2.4010033445E+04  6.1758317887E+00  3.8821493155E+00  4.2319598547E-01  3.5939134388E-01  7.8274762578E-01
  2.4107023411E+04  6.2144560707E+00  3.8807500126E+00  4.2840270776E-01  3.6325995191E-01  7.8382491022E-01
  2.4204013378E+04  6.2533271209E+00  3.8794111054E+00  4.3365214396E-01  3.6715009670E-01  7.8489231847E-01
  2.4301003344E+04  6.2922843962E+00  3.8780780119E+00  4.3894447061E-01  3.7106068296E-01  7.8594992989E-01
  2.4397993311E+04  6.3313277425E+00  3.8767506838E+00  4.4427986424E-01  3.7499162445E-01  7.8699782419E-01
  2.4494983278E+04  6.3704570067E+00  3.8754290735E+00  4.4965850140E-01  3.7894283349E-01  7.8803608137E-01
  2.4591973244E+04  6.4098446331E+00  3.8741692570E+00  4.5508055867E-01  3.8291538519E-01  7.8906478166E-01
  2.4688963211E+04  6.4493428440E+00  3.8729224094E+00  4.6054621262E-01  3.8690822215E-01  7.9008400548E-01
  2.4785953177E+04  6.4889281520E+00  3.8716808492E+00  4.6605563984E-01  3.9092109747E-01  7.9109383341E-01
  2.4882943144E+04  6.5286004073E+00  3.8704445337E+00  4.7160901696E-01  3.9495391844E-01  7.9209434613E-01
  2.4979933110E+04  6.5684629803E+00  3.8692463254E+00  4.7720652059E-01  3.9900732286E-01  7.9308562438E-01
  2.5076923077E+04  6.6085071829E+00  3.8680828580E+00  4.8287648507E-01  4.0310080161E-01  7.9406774893E-01
  2.5173913043E+04  6.6486395183E+00  3.8669242298E+00  4.8859890768E-01  4.0721939926E-01  7.9504079823E-01
  2.5270903010E+04  6.6888598399E+00  3.8657704020E+00  4.9436669843E-01  4.1135793277E-01  7.9600484766E-01
  2.5367892977E+04  6.7291855820E+00  3.8646271234E+00  5.0018004027E-01  4.1551643625E-01  7.9695997258E-01
  2.5464882943E+04  6.7697691933E+00  3.8635441621E+00  5.0603911615E-01  4.1969598853E-01  7.9790624857E-01
  2.5561872910E+04  6.8104418877E+00  3.8624656195E+00  5.1194410907E-01  4.2389521731E-01  7.9884375133E-01
  2.5658862876E+04  6.8512035215E+00  3.8613914609E+00  5.1789520206E-01  4.2811401933E-01  7.9977255669E-01
  2.5755852843E+04  6.8920539519E+00  3.8603216520E+00  5.2389257815E-01  4.3235229000E-01  8.0069274054E-01
  2.5852842809E+04  6.9330941822E+00  3.8592914888E+00  5.2993642044E-01  4.3661077675E-01  8.0160437880E-01
  2.5949832776E+04  6.9742952162E+00  3.8582902681E+00  5.3602691203E-01  4.4088915442E-01  8.0250754741E-01
  2.6046822742E+04  7.0155860179E+00  3.8572930409E+00  5.4216423604E-01  4.4518672360E-01  8.0340232224E-01
  2.6143812709E+04  7.0569664476E+00  3.8562997764E+00  5.4834857565E-01  4.4950337515E-01  8.0428877914E-01
  2.6240802676E+04  7.0984366972E+00  3.8553105691E+00  5.5458011404E-01  4.5383900173E-01  8.0516699382E-01
  2.6337792642E+04  7.1401532827E+00  3.8543840456E+00  5.6085903444E-01  4.5819496588E-01  8.0603704089E-01
  2.6434782609E+04  7.1819603383E+00  3.8534611492E+00  5.6718552008E-01  4.6256972146E-01  8.0689899097E-01
  2.6531772575E+04  7.2238577271E+00  3.8525418526E+00  5.7355975424E-01  4.6696315499E-01  8.0775291592E-01
  2.6628762542E+04  7.2658453131E+00  3.8516261285E+00  5.7998192022E-01  4.7137515181E-01  8.0859888781E-01
  2.6725752508E+04  7.3079707681E+00  3.8507334946E+00  5.8645220134E-01  4.7580609711E-01  8.0943697862E-01
  2.6822742475E+04  7.3502804242E+00  3.8498824572E+00  5.9297078096E-01  4.8025638218E-01  8.1026726027E-01
  2.6919732441E+04  7.3926809924E+00  3.8490346786E+00  5.9953784247E-01  4.8472492354E-01  8.1108980436E-01
  2.7016722408E+04  7.4351723394E+00  3.8481901347E+00  6.0615356926E-01  4.8921160244E-01  8.1190468112E-01
  2.7113712375E+04  7.4777543327E+00  3.8473488016E+00  6.1281814478E-01  4.9371629906E-01  8.1271196049E-01
  2.7210702341E+04  7.5205014324E+00  3.8465442586E+00  6.1953175248E-01  4.9823978362E-01  8.1351163281E-01
  2.7307692308E+04  7.5633906789E+00  3.8457656669E+00  6.2629457585E-01  5.0278168671E-01  8.1430417531E-01
  2.7404682274E+04  7.6063711590E+00  3.8449899925E+00  6.3310687354E-01  5.0734133370E-01  8.1509197250E-01
  2.7501672241E+04  7.6494427427E+00  3.8442172141E+00  6.3996907516E-01  5.1191875793E-01  8.1587599561E-01
  2.7598662207E+04  7.6926053008E+00  3.8434473107E+00  6.4688105012E-01  5.1651363226E-01  8.1665626487E-01
  2.7695652174E+04  7.7359427337E+00  3.8427228070E+00  6.5384298207E-01  5.2112699477E-01  8.1743280262E-01
  2.7792642140E+04  7.7793970173E+00  3.8420138011E+00  6.6085505469E-01  5.2575794502E-01  8.1820563130E-01
  2.7889632107E+04  7.8229427346E+00  3.8413073953E+00  6.6791745167E-01  5.3040600928E-01  8.1897477316E-01
  2.7986622074E+04  7.8665797591E+00  3.8406035711E+00  6.7503035674E-01  5.3507105946E-01  8.1974025031E-01
  2.8083612040E+04  7.9103079649E+00  3.8399023101E+00  6.8219395365E-01  5.3975296650E-01  8.2050208466E-01
  2.8180602007E+04  7.9542069747E+00  3.8392501949E+00  6.8940842619E-01  5.4445291120E-01  8.2126029798E-01
  2.8277591973E+04  7.9982106891E+00  3.8386080813E+00  6.9667395815E-01  5.4916970766E-01  8.2201491188E-01
  2.8374581940E+04  8.0423059160E+00  3.8379682731E+00  7.0399073336E-01  5.5390301202E-01  8.2276594779E-01
  2.8471571906E+04  8.0864925322E+00  3.8373307543E+00  7.1135893568E-01  5.5865269209E-01  8.2351342701E-01
  2.8568561873E+04  8.1307704146E+00  3.8366955089E+00  7.1877874899E-01  5.6341861481E-01  8.2425737064E-01
  2.8665551839E+04  8.1752051120E+00  3.8361085056E+00  7.2625035719E-01  5.6820197234E-01  8.2499779968E-01
  2.8762541806E+04  8.2197416207E+00  3.8355307446E+00  7.3377394422E-01  5.7300155113E-01  8.2573473492E-01
  2.8859531773E+04  8.2643695993E+00  3.8349550153E+00  7.4134969403E-01  5.7781701185E-01  8.2646819704E-01
  2.8956521739E+04  8.3090889274E+00  3.8343813035E+00  7.4897779059E-01  5.8264821862E-01  8.2719820655E-01
  2.9053511706E+04  8.3538994850E+00  3.8338095956E+00  7.5665841792E-01  5.8749503478E-01  8.2792478380E-01
  2.9150501672E+04  8.3988471632E+00  3.8332807764E+00  7.6439176005E-01  5.9235852839E-01  8.2864794902E-01
  2.9247491639E+04  8.4438988244E+00  3.8327649711E+00  7.7217800102E-01  5.9723772418E-01  8.2936772227E-01
  2.9344481605E+04  8.4890417913E+00  3.8322509426E+00  7.8001732493E-01  6.0213215804E-01  8.3008412346E-01
  2.9441471572E+04  8.5342759464E+00  3.8317386788E+00  7.8790991587E-01  6.0704169081E-01  8.3079717238E-01
  2.9538461538E+04  8.5796011726E+00  3.8312281680E+00  7.9585595798E-01  6.1196618263E-01  8.3150688865E-01
  2.9635451505E+04  8.6250426408E+00  3.8307509315E+00  8.0385563540E-01  6.1690644008E-01  8.3221329176E-01
  2.9732441472E+04  8.6705908564E+00  3.8302948170E+00  8.1190913231E-01  6.2186199598E-01  8.3291640168E-01
  2.9829431438E+04  8.7162300928E+00  3.8298402420E+00  8.2001663292E-01  6.2683213017E-01  8.3361623893E-01
  2.9926421405E+04  8.7619602351E+00  3.8293871964E+00  8.2817832145E-01  6.3181670063E-01  8.3431282346E-01
  3.0023411371E+04  8.8077811688E+00  3.8289356700E+00  8.3641040971E-01  6.3682485588E-01  8.3500617501E-01
  3.0120401338E+04  8.8537038576E+00  3.8285037113E+00  8.4474811241E-01  6.4187713250E-01  8.3569631320E-01
  3.0217391304E+04  8.8997368815E+00  3.8281051211E+00  8.5314166666E-01  6.4694477432E-01  8.3638325746E-01
  3.0314381271E+04  8.9458605766E+00  3.8277078495E+00  8.6159126500E-01  6.5202664597E-01  8.3706702710E-01
  3.0411371237E+04  8.9920748305E+00  3.8273118879E+00  8.7009710001E-01  6.5712260002E-01  8.3774764124E-01
  3.0508361204E+04  9.0383795313E+00  3.8269172280E+00  8.7865936429E-01  6.6223248846E-01  8.3842511887E-01
  3.0605351171E+04  9.0847751060E+00  3.8265245294E+00  8.8727825050E-01  6.6735618591E-01  8.3909947881E-01
  3.0702341137E+04  9.1312999693E+00  3.8261813533E+00  8.9595395133E-01  6.7249522274E-01  8.3977073974E-01
  3.0799331104E+04  9.1779152256E+00  3.8258392903E+00  9.0468665953E-01  6.7764779219E-01  8.4043892020E-01
  3.0896321070E+04  9.2246207649E+00  3.8254983331E+00  9.1347656786E-01  6.8281374463E-01  8.4110403856E-01
  3.0993311037E+04  9.2714164778E+00  3.8251584749E+00  9.2232386914E-01  6.8799292989E-01  8.4176611307E-01
  3.1090301003E+04  9.3183022556E+00  3.8248197086E+00  9.3122875622E-01  6.9318519737E-01  8.4242516183E-01
  3.1187290970E+04  9.3653075464E+00  3.8245095211E+00  9.4019142200E-01  6.9839147716E-01  8.4308120278E-01
