#[MATERIAL DEFINITION FOR MC-GPU: interaction mean free path and sampling data from PENELOPE 2006]
#[MATERIAL NAME]
# Marrow_Bone02_14                                              
#[NOMINAL DENSITY (g/cm^3)]
#   1.16447000
#[NUMBER OF DATA VALUES]
#   1495
#[MEAN FREE PATHS (cm) (ie, average distance between interactions)]
#[Energy (eV)     | Rayleigh        | Compton         | Photoelectric   | TOTAL (+pair prod) (cm) | Rayleigh: max cumul prob F^2]
  5.0000000000E+03  1.5648651246E+00  6.8260898397E+00  1.1595749642E-02  1.1491079661E-02  2.9467313006E-01
  5.0969899666E+03  1.5967334383E+00  6.7715196158E+00  1.2234665866E-02  1.2119901399E-02  2.9956040273E-01
  5.1939799331E+03  1.6288425203E+00  6.7192312607E+00  1.2895546102E-02  1.2769938440E-02  3.0438779981E-01
  5.2909698997E+03  1.6611869786E+00  6.6690886972E+00  1.3578704331E-02  1.3441464779E-02  3.0915793837E-01
  5.3879598662E+03  1.6937613490E+00  6.6209656531E+00  1.4284452793E-02  1.4134751269E-02  3.1387334245E-01
  5.4849498328E+03  1.7265601141E+00  6.5747448133E+00  1.5013309603E-02  1.4850268722E-02  3.1853645058E-01
  5.5819397993E+03  1.7595777206E+00  6.5303170588E+00  1.5767884650E-02  1.5590530795E-02  3.2314962274E-01
  5.6789297659E+03  1.7928085975E+00  6.4875807835E+00  1.6546181054E-02  1.6353542297E-02  3.2771512036E-01
  5.7759197324E+03  1.8262471735E+00  6.4464412784E+00  1.7348561166E-02  1.7139616332E-02  3.3223502284E-01
  5.8729096990E+03  1.8598878940E+00  6.4068101772E+00  1.8175353913E-02  1.7949031612E-02  3.3671132546E-01
  5.9698996656E+03  1.8937252441E+00  6.3686049511E+00  1.9026807045E-02  1.8781986029E-02  3.4114596370E-01
  6.0668896321E+03  1.9277540574E+00  6.3317483019E+00  1.9905510795E-02  1.9640956646E-02  3.4554076462E-01
  6.1638795987E+03  1.9619700470E+00  6.2961675044E+00  2.0810708824E-02  2.0525155775E-02  3.4989740864E-01
  6.2608695652E+03  1.9963697567E+00  6.2617941109E+00  2.1744321574E-02  2.1436399073E-02  3.5421752278E-01
  6.3578595318E+03  2.0309498171E+00  6.2285640215E+00  2.2711990593E-02  2.2380107802E-02  3.5850271856E-01
  6.4548494983E+03  2.0657151103E+00  6.1964465864E+00  2.3706889144E-02  2.3349588050E-02  3.6275440070E-01
  6.5518394649E+03  2.1006641066E+00  6.1653906227E+00  2.4732856926E-02  2.4348506230E-02  3.6697382926E-01
  6.6488294314E+03  2.1357849711E+00  6.1353123404E+00  2.5788302024E-02  2.5375252574E-02  3.7116224138E-01
  6.7458193980E+03  2.1710743226E+00  6.1061617100E+00  2.6872333868E-02  2.6428902047E-02  3.7532085301E-01
  6.8428093645E+03  2.2065288344E+00  6.0778917800E+00  2.7985291744E-02  2.7509720499E-02  3.7945086058E-01
  6.9397993311E+03  2.2421452465E+00  6.0504584705E+00  2.9127513865E-02  2.8617970519E-02  3.8355340175E-01
  7.0367892977E+03  2.2779212486E+00  6.0238232510E+00  3.0301846758E-02  2.9756331474E-02  3.8762938050E-01
  7.1337792642E+03  2.3138802124E+00  5.9980306326E+00  3.1510509284E-02  3.0926872375E-02  3.9167962402E-01
  7.2307692308E+03  2.3499946355E+00  5.9729582993E+00  3.2749867016E-02  3.2126006685E-02  3.9570495277E-01
  7.3277591973E+03  2.3862624791E+00  5.9485715300E+00  3.4020264242E-02  3.3353992245E-02  3.9970618064E-01
  7.4247491639E+03  2.4226816874E+00  5.9248376822E+00  3.5322044271E-02  3.4611083484E-02  4.0368411490E-01
  7.5217391304E+03  2.4592658204E+00  5.9017704198E+00  3.6655549446E-02  3.5897536368E-02  4.0763947191E-01
  7.6187290970E+03  2.4960184098E+00  5.8793523703E+00  3.8021121157E-02  3.7213600977E-02  4.1157280112E-01
  7.7157190635E+03  2.5329178883E+00  5.8574992300E+00  3.9419099856E-02  3.8559515561E-02  4.1548463613E-01
  7.8127090301E+03  2.5699621204E+00  5.8361851859E+00  4.0849825070E-02  3.9935520767E-02  4.1937551130E-01
  7.9096989967E+03  2.6071737164E+00  5.8154489375E+00  4.2313635409E-02  4.1341863116E-02  4.2324596163E-01
  8.0066889632E+03  2.6445445632E+00  5.7952471979E+00  4.3812408151E-02  4.2780242871E-02  4.2709649078E-01
  8.1036789298E+03  2.6820558001E+00  5.7755138606E+00  4.5366438411E-02  4.4269883934E-02  4.3092746298E-01
  8.2006688963E+03  2.7197133582E+00  5.7562471215E+00  4.6955922896E-02  4.5791785300E-02  4.3473921115E-01
  8.2976588629E+03  2.7575498941E+00  5.7375022518E+00  4.8581230535E-02  4.7346211792E-02  4.3853207281E-01
  8.3946488294E+03  2.7955241937E+00  5.7191666534E+00  5.0242729561E-02  4.8933392595E-02  4.4230638964E-01
  8.4916387960E+03  2.8336359133E+00  5.7012269391E+00  5.1940795499E-02  5.0553577667E-02  4.4606247936E-01
  8.5886287625E+03  2.8719368270E+00  5.6837742819E+00  5.3675904594E-02  5.2207135110E-02  4.4980055533E-01
  8.6856187291E+03  2.9103725374E+00  5.6666799995E+00  5.5448312677E-02  5.3894169880E-02  4.5352081266E-01
  8.7826086957E+03  2.9489476400E+00  5.6499427399E+00  5.7258385453E-02  5.5614915810E-02  4.5722345276E-01
  8.8795986622E+03  2.9877106354E+00  5.6336390955E+00  5.9106487969E-02  5.7369627646E-02  4.6090868227E-01
  8.9765886288E+03  3.0266048662E+00  5.6176498183E+00  6.0992984627E-02  5.9158499480E-02  4.6457666790E-01
  9.0735785953E+03  3.0656525544E+00  5.6020049317E+00  6.2927396557E-02  6.0990366631E-02  4.6822751003E-01
  9.1705685619E+03  3.1048748396E+00  5.5867258407E+00  6.4904396270E-02  6.2860083344E-02  4.7186131033E-01
  9.2675585284E+03  3.1442247649E+00  5.5717234158E+00  6.6921521131E-02  6.4765173177E-02  4.7547817744E-01
  9.3645484950E+03  3.1837575368E+00  5.5570753594E+00  6.8979146847E-02  6.6705889802E-02  4.7907821649E-01
  9.4615384615E+03  3.2234382750E+00  5.5427140508E+00  7.1077648566E-02  6.8682426081E-02  4.8266147565E-01
  9.5585284281E+03  3.2632608505E+00  5.5286228549E+00  7.3217577941E-02  7.0695153424E-02  4.8622798698E-01
  9.6555183946E+03  3.3032756158E+00  5.5148620249E+00  7.5399205085E-02  7.2744216558E-02  4.8977779007E-01
  9.7525083612E+03  3.3434125796E+00  5.5013248561E+00  7.7622842897E-02  7.4829711931E-02  4.9331093679E-01
  9.8494983278E+03  3.3837442764E+00  5.4881001845E+00  7.9888864625E-02  7.6951891954E-02  4.9682746799E-01
  9.9464882943E+03  3.4242168056E+00  5.4751070609E+00  8.2197642986E-02  7.9110911209E-02  5.0032734519E-01
  1.0043478261E+04  3.4648515868E+00  5.4623661331E+00  8.4559117096E-02  8.1315824055E-02  5.0381052982E-01
  1.0140468227E+04  3.5056626163E+00  5.4498841734E+00  8.6976603237E-02  8.3569502480E-02  5.0727699162E-01
  1.0237458194E+04  3.5466060177E+00  5.4376035233E+00  8.9438995448E-02  8.5861455068E-02  5.1072670817E-01
  1.0334448161E+04  3.5877596125E+00  5.4256039135E+00  9.1946685095E-02  8.8191940175E-02  5.1415966456E-01
  1.0431438127E+04  3.6290254906E+00  5.4137704710E+00  9.4500063127E-02  9.0561058746E-02  5.1757585296E-01
  1.0528428094E+04  3.6705186105E+00  5.4022191918E+00  9.7099520077E-02  9.2969098038E-02  5.2097526711E-01
  1.0625418060E+04  3.7121290834E+00  5.3908280748E+00  9.9745446062E-02  9.5416134485E-02  5.2435784446E-01
  1.0722408027E+04  3.7539502082E+00  5.3796859019E+00  1.0243823079E-01  9.7902431545E-02  5.2772349829E-01
  1.0819397993E+04  3.7959086279E+00  5.3687131993E+00  1.0517826358E-01  1.0042808671E-01  5.3107215133E-01
  1.0916387960E+04  3.8380646872E+00  5.3579626012E+00  1.0796593332E-01  1.0299332660E-01  5.3440373448E-01
  1.1013377926E+04  3.8803739467E+00  5.3473857929E+00  1.1080162852E-01  1.0559826569E-01  5.3771818643E-01
  1.1110367893E+04  3.9228719844E+00  5.3370103041E+00  1.1368573728E-01  1.0824309880E-01  5.4101545336E-01
  1.1207357860E+04  3.9655344938E+00  5.3268081555E+00  1.1662524632E-01  1.1093392156E-01  5.4429548860E-01
  1.1304347826E+04  4.0083816624E+00  5.3167922947E+00  1.1963165521E-01  1.1368090378E-01  5.4755823271E-01
  1.1401337793E+04  4.0513993263E+00  5.3069447611E+00  1.2268867995E-01  1.1646905175E-01  5.5080359028E-01
  1.1498327759E+04  4.0946028814E+00  5.2972739563E+00  1.2579672633E-01  1.1929853326E-01  5.5403147046E-01
  1.1595317726E+04  4.1379770759E+00  5.2877620957E+00  1.2895619984E-01  1.2216947319E-01  5.5724179041E-01
  1.1692307692E+04  4.1815443711E+00  5.2784226167E+00  1.3216750569E-01  1.2508203996E-01  5.6043447512E-01
  1.1789297659E+04  4.2252759206E+00  5.2692285104E+00  1.3543104876E-01  1.2803633014E-01  5.6360945704E-01
  1.1886287625E+04  4.2692144023E+00  5.2602074071E+00  1.3874723368E-01  1.3103253123E-01  5.6676667585E-01
  1.1983277592E+04  4.3133035569E+00  5.2513140872E+00  1.4211646475E-01  1.3407069061E-01  5.6990606444E-01
  1.2080267559E+04  4.3576207593E+00  5.2425991333E+00  1.4553914601E-01  1.3715103790E-01  5.7302753309E-01
  1.2177257525E+04  4.4020671719E+00  5.2339905165E+00  1.4901568119E-01  1.4027354553E-01  5.7613099770E-01
  1.2274247492E+04  4.4467707123E+00  5.2255701579E+00  1.5254647375E-01  1.4343851357E-01  5.7921638193E-01
  1.2371237458E+04  4.4915734158E+00  5.2172309850E+00  1.5613192686E-01  1.4664580811E-01  5.8228361694E-01
  1.2468227425E+04  4.5366710041E+00  5.2090943056E+00  1.5977244340E-01  1.4989583391E-01  5.8533264114E-01
  1.2565217391E+04  4.5818666761E+00  5.2010332193E+00  1.6349101745E-01  1.5320821520E-01  5.8836340324E-01
  1.2662207358E+04  4.6273283136E+00  5.1931471682E+00  1.6727756335E-01  1.5657398782E-01  5.9137587265E-01
  1.2759197324E+04  4.6729278181E+00  5.1853560880E+00  1.7112171187E-01  1.5998353601E-01  5.9436998124E-01
  1.2856187291E+04  4.7187496520E+00  5.1777063116E+00  1.7502388716E-01  1.6343709278E-01  5.9734565933E-01
  1.2953177258E+04  4.7647623583E+00  5.1701767893E+00  1.7898451321E-01  1.6693469136E-01  6.0030284465E-01
  1.3050167224E+04  4.8109421238E+00  5.1627509451E+00  1.8300401378E-01  1.7047636730E-01  6.0324148212E-01
  1.3147157191E+04  4.8573775620E+00  5.1554750070E+00  1.8708281249E-01  1.7406236128E-01  6.0616152355E-01
  1.3244147157E+04  4.9039149471E+00  5.1482626899E+00  1.9122133277E-01  1.7769245262E-01  6.0906291990E-01
  1.3341137124E+04  4.9507799405E+00  5.1412312785E+00  1.9541999786E-01  1.8136714252E-01  6.1194561181E-01
  1.3438127090E+04  4.9977513023E+00  5.1342617685E+00  1.9967923084E-01  1.8508605900E-01  6.1480954503E-01
  1.3535117057E+04  5.0449752036E+00  5.1274269318E+00  2.0399945459E-01  1.8884954783E-01  6.1765467246E-01
  1.3632107023E+04  5.0923903361E+00  5.1206931906E+00  2.0838109183E-01  1.9265753645E-01  6.2048095389E-01
  1.3729096990E+04  5.1399682226E+00  5.1140440353E+00  2.1282717140E-01  1.9651222744E-01  6.2328835587E-01
  1.3826086957E+04  5.1878370057E+00  5.1075393655E+00  2.1734008255E-01  2.0041559518E-01  6.2607685945E-01
  1.3923076923E+04  5.2358122915E+00  5.1010883537E+00  2.2191590585E-01  2.0436355437E-01  6.2884642721E-01
  1.4020066890E+04  5.2840953864E+00  5.0947833761E+00  2.2655506634E-01  2.0835658775E-01  6.3159701388E-01
  1.4117056856E+04  5.3325361227E+00  5.0885523655E+00  2.3125798891E-01  2.1239437955E-01  6.3432858135E-01
  1.4214046823E+04  5.3811686345E+00  5.0824089374E+00  2.3602509826E-01  2.1647702375E-01  6.3704109843E-01
  1.4311036789E+04  5.4300849281E+00  5.0763919814E+00  2.4085681895E-01  2.2060476080E-01  6.3973454065E-01
  1.4408026756E+04  5.4791109776E+00  5.0704227181E+00  2.4575357536E-01  2.2477717106E-01  6.4240889004E-01
  1.4505016722E+04  5.5284609742E+00  5.0645917857E+00  2.5071579171E-01  2.2899479539E-01  6.4506413495E-01
  1.4602006689E+04  5.5779747461E+00  5.0588285114E+00  2.5574389207E-01  2.3325722924E-01  6.4770026982E-01
  1.4698996656E+04  5.6276655266E+00  5.0531369048E+00  2.6083830033E-01  2.3756449317E-01  6.5031729501E-01
  1.4795986622E+04  5.6776773304E+00  5.0475743192E+00  2.6599944022E-01  2.4191696564E-01  6.5291521659E-01
  1.4892976589E+04  5.7278024566E+00  5.0420541418E+00  2.7122773534E-01  2.4631406602E-01  6.5549404224E-01
  1.4989966555E+04  5.7782187867E+00  5.0366460105E+00  2.7652360908E-01  2.5075626306E-01  6.5805376346E-01
  1.5086956522E+04  5.8288540918E+00  5.0313193144E+00  2.8193548802E-01  2.5528269004E-01  6.6059437199E-01
  1.5183946488E+04  5.8796043767E+00  5.0260323321E+00  2.8742300461E-01  2.5985930885E-01  6.6311586602E-01
  1.5280936455E+04  5.9307502902E+00  5.0208918800E+00  2.9298115898E-01  2.6448244392E-01  6.6561824987E-01
  1.5377926421E+04  5.9820196050E+00  5.0157915487E+00  2.9861039962E-01  2.6915124570E-01  6.6810153380E-01
  1.5474916388E+04  6.0334862159E+00  5.0107587661E+00  3.0431117495E-01  2.7386588913E-01  6.7056573379E-01
  1.5571906355E+04  6.0852793049E+00  5.0058405151E+00  3.1008393332E-01  2.7862674271E-01  6.7301087135E-01
  1.5668896321E+04  6.1371912647E+00  5.0009575852E+00  3.1592912303E-01  2.8343308637E-01  6.7543697334E-01
  1.5765886288E+04  6.1893773347E+00  4.9961667608E+00  3.2184719233E-01  2.8828536845E-01  6.7784407178E-01
  1.5862876254E+04  6.2418199267E+00  4.9914597405E+00  3.2783858939E-01  2.9318347592E-01  6.8023220354E-01
  1.5959866221E+04  6.2943831295E+00  4.9867858069E+00  3.3390376233E-01  2.9812686757E-01  6.8260140144E-01
  1.6056856187E+04  6.3472848405E+00  4.9822229823E+00  3.4004315919E-01  3.0311623498E-01  6.8495168858E-01
  1.6153846154E+04  6.4003854925E+00  4.9777191589E+00  3.4625722797E-01  3.0815101019E-01  6.8728309244E-01
  1.6250836120E+04  6.4536085188E+00  4.9732463312E+00  3.5254641660E-01  3.1323081643E-01  6.8959564587E-01
  1.6347826087E+04  6.5072213590E+00  4.9688981869E+00  3.5891117296E-01  3.1835656784E-01  6.9188938692E-01
  1.6444816054E+04  6.5609886094E+00  4.9645900130E+00  3.6535194486E-01  3.2352728640E-01  6.9416435866E-01
  1.6541806020E+04  6.6148828195E+00  4.9603118460E+00  3.7186918004E-01  3.2874274751E-01  6.9642060895E-01
  1.6638795987E+04  6.6691987742E+00  4.9561646824E+00  3.7846332620E-01  3.3400402325E-01  6.9865819032E-01
  1.6735785953E+04  6.7236411415E+00  4.9520450603E+00  3.8513483097E-01  3.3930982474E-01  7.0087715969E-01
  1.6832775920E+04  6.7782304729E+00  4.9479597534E+00  3.9188414191E-01  3.4466010108E-01  7.0307757783E-01
  1.6929765886E+04  6.8332282151E+00  4.9439962111E+00  3.9871170655E-01  3.5005584008E-01  7.0525949696E-01
  1.7026755853E+04  6.8883541973E+00  4.9400584589E+00  4.0561797233E-01  3.5549573049E-01  7.0742296733E-01
  1.7123745819E+04  6.9436320607E+00  4.9361541666E+00  4.1260338665E-01  3.6097972466E-01  7.0956804520E-01
  1.7220735786E+04  6.9993200421E+00  4.9323678423E+00  4.1966839683E-01  3.6650884610E-01  7.1169479129E-01
  1.7317725753E+04  7.0551381147E+00  4.9286056633E+00  4.2681345016E-01  3.7208170057E-01  7.1380327060E-01
  1.7414715719E+04  7.1110971802E+00  4.9248710193E+00  4.3403899385E-01  3.7769817086E-01  7.1589355221E-01
  1.7511705686E+04  7.1674837378E+00  4.9212558746E+00  4.4135225939E-01  3.8336458341E-01  7.1796570909E-01
  1.7608695652E+04  7.2240022610E+00  4.9176633292E+00  4.4879722209E-01  3.8911205107E-01  7.2001981798E-01
  1.7705685619E+04  7.2806523294E+00  4.9140931186E+00  4.5632560734E-01  3.9490347853E-01  7.2205595916E-01
  1.7802675585E+04  7.3377269356E+00  4.9106377433E+00  4.6393788157E-01  4.0074016678E-01  7.2407487841E-01
  1.7899665552E+04  7.3949532942E+00  4.9072092199E+00  4.7163451120E-01  4.0662058588E-01  7.2607755262E-01
  1.7996655518E+04  7.4523130926E+00  4.9038015984E+00  4.7941596268E-01  4.1254444480E-01  7.2806402962E-01
  1.8093645485E+04  7.5100543018E+00  4.9004919350E+00  4.8728270241E-01  4.1851287166E-01  7.3003435496E-01
  1.8190635452E+04  7.5679952518E+00  4.8972221285E+00  4.9523519684E-01  4.2452473067E-01  7.3198857789E-01
  1.8287625418E+04  7.6260715444E+00  4.8939718743E+00  5.0327391238E-01  4.3057946730E-01  7.3392675117E-01
  1.8384615385E+04  7.6844686818E+00  4.8907979183E+00  5.1139931546E-01  4.3667791431E-01  7.3584893091E-01
  1.8481605351E+04  7.7431308779E+00  4.8876818112E+00  5.1961187251E-01  4.4281957735E-01  7.3775517651E-01
  1.8578595318E+04  7.8019303273E+00  4.8845839842E+00  5.2791204996E-01  4.4900351488E-01  7.3964555041E-01
  1.8675585284E+04  7.8609721461E+00  4.8815360804E+00  5.3630031423E-01  4.5523012180E-01  7.4152011808E-01
  1.8772575251E+04  7.9203621477E+00  4.8785689229E+00  5.4478377842E-01  4.6150460240E-01  7.4337894777E-01
  1.8869565217E+04  7.9798913214E+00  4.8756188457E+00  5.5335986270E-01  4.6782324983E-01  7.4522211049E-01
  1.8966555184E+04  8.0395660045E+00  4.8726876641E+00  5.6202569721E-01  4.7418345040E-01  7.4704967981E-01
  1.9063545151E+04  8.0996902750E+00  4.8698649563E+00  5.7078175134E-01  4.8058689761E-01  7.4886173176E-01
  1.9160535117E+04  8.1599556445E+00  4.8670581960E+00  5.7962849449E-01  4.8703142383E-01  7.5065834473E-01
  1.9257525084E+04  8.2203617273E+00  4.8642672131E+00  5.8856639608E-01  4.9351676577E-01  7.5243959932E-01
  1.9354515050E+04  8.2811157125E+00  4.8615521852E+00  5.9759592551E-01  5.0004405055E-01  7.5420557825E-01
  1.9451505017E+04  8.3421236523E+00  4.8588845379E+00  6.0671755220E-01  5.0661243023E-01  7.5595636563E-01
  1.9548494983E+04  8.4032742463E+00  4.8562316120E+00  6.1593174559E-01  5.1322089441E-01  7.5769203535E-01
  1.9645484950E+04  8.4646381513E+00  4.8536136126E+00  6.2523897510E-01  5.1986966389E-01  7.5941265314E-01
  1.9742474916E+04  8.5263949384E+00  4.8510810882E+00  6.3463971016E-01  5.2655976489E-01  7.6111828726E-01
  1.9839464883E+04  8.5882963282E+00  4.8485622867E+00  6.4413442023E-01  5.3328918469E-01  7.6280900870E-01
  1.9936454849E+04  8.6503419499E+00  4.8460570674E+00  6.5372357474E-01  5.4005763063E-01  7.6448489109E-01
  2.0033444816E+04  8.7127683974E+00  4.8436316952E+00  6.6342640138E-01  5.4687933220E-01  7.6614601052E-01
  2.0130434783E+04  8.7754268564E+00  4.8412432327E+00  6.7326117721E-01  5.5376481329E-01  7.6779244549E-01
  2.0227424749E+04  8.8382315103E+00  4.8388674196E+00  6.8319319391E-01  5.6068911528E-01  7.6942427670E-01
  2.0324414716E+04  8.9012423586E+00  4.8365207256E+00  6.9322293654E-01  5.6765240107E-01  7.7104158701E-01
  2.0421404682E+04  8.9646645536E+00  4.8342587314E+00  7.0335089025E-01  5.7465601219E-01  7.7264446127E-01
  2.0518394649E+04  9.0282349194E+00  4.8320085055E+00  7.1357754019E-01  5.8169759524E-01  7.7423298623E-01
  2.0615384615E+04  9.0919530994E+00  4.8297699313E+00  7.2390337162E-01  5.8877682803E-01  7.7580725043E-01
  2.0712374582E+04  9.1560077925E+00  4.8275934509E+00  7.3432886982E-01  5.9589495535E-01  7.7736734410E-01
  2.0809364548E+04  9.2203506406E+00  4.8254650849E+00  7.4485452011E-01  6.0305130682E-01  7.7891335902E-01
  2.0906354515E+04  9.2848432990E+00  4.8233475477E+00  7.5548080788E-01  6.1024441866E-01  7.8044538847E-01
  2.1003344482E+04  9.3494854192E+00  4.8212407344E+00  7.6620821858E-01  6.1747395446E-01  7.8196353134E-01
  2.1100334448E+04  9.4145763357E+00  4.8192225239E+00  7.7703723768E-01  6.2474220421E-01  7.8346790894E-01
  2.1197324415E+04  9.4798501795E+00  4.8172225181E+00  7.8796835073E-01  6.3204656689E-01  7.8495860918E-01
  2.1294314381E+04  9.5452755009E+00  4.8152324670E+00  7.9900204331E-01  6.3938642714E-01  7.8643571475E-01
  2.1391304348E+04  9.6109088120E+00  4.8132667827E+00  8.1013880105E-01  6.4676195488E-01  7.8789931018E-01
  2.1488294314E+04  9.6769704681E+00  4.8113809658E+00  8.2137910964E-01  6.5417485926E-01  7.8934948168E-01
  2.1585284281E+04  9.7431856321E+00  4.8095043755E+00  8.3272345482E-01  6.6162230987E-01  7.9078631711E-01
  2.1682274247E+04  9.8095539687E+00  4.8076369255E+00  8.4417232236E-01  6.6910394863E-01  7.9220990580E-01
  2.1779264214E+04  9.8762000278E+00  4.8058095628E+00  8.5572619809E-01  6.7662061545E-01  7.9362033852E-01
  2.1876254181E+04  9.9432115933E+00  4.8040432829E+00  8.6738556789E-01  6.8417284874E-01  7.9501770735E-01
  2.1973244147E+04  1.0010378381E+01  4.8022854615E+00  8.7915091768E-01  6.9175828783E-01  7.9640210555E-01
  2.2070234114E+04  1.0077700063E+01  4.8005360211E+00  8.9102273343E-01  6.9937656365E-01  7.9777362755E-01
  2.2167224080E+04  1.0145348290E+01  4.7988365193E+00  9.0300150116E-01  7.0702904317E-01  7.9913236879E-01
  2.2264214047E+04  1.0213320018E+01  4.7971853538E+00  9.1508770694E-01  7.1471538633E-01  8.0047842568E-01
  2.2361204013E+04  1.0281448709E+01  4.7955419301E+00  9.2728230561E-01  7.2243384091E-01  8.0181189547E-01
  2.2458193980E+04  1.0349734042E+01  4.7939061785E+00  9.3967606509E-01  7.3023854715E-01  8.0313287568E-01
  2.2555183946E+04  1.0418372815E+01  4.7923245420E+00  9.5218075652E-01  7.3807707844E-01  8.0444145725E-01
  2.2652173913E+04  1.0487314930E+01  4.7907843267E+00  9.6479688638E-01  7.4594858314E-01  8.0573772728E-01
  2.2749163880E+04  1.0556415776E+01  4.7892511840E+00  9.7752496123E-01  7.5385115550E-01  8.0702177406E-01
  2.2846153846E+04  1.0625675039E+01  4.7877250514E+00  9.9036548775E-01  7.6178440109E-01  8.0829368708E-01
  2.2943143813E+04  1.0695291681E+01  4.7862517158E+00  1.0033189727E+00  7.6975014107E-01  8.0955355687E-01
  2.3040133779E+04  1.0765214380E+01  4.7848185262E+00  1.0163859230E+00  7.7774747752E-01  8.1080147495E-01
  2.3137123746E+04  1.0835297602E+01  4.7833917834E+00  1.0295668455E+00  7.8577441227E-01  8.1203753377E-01
  2.3234113712E+04  1.0905541042E+01  4.7819714318E+00  1.0428622473E+00  7.9383054302E-01  8.1326182659E-01
  2.3331103679E+04  1.0976121812E+01  4.7805972345E+00  1.0562726357E+00  8.0191753277E-01  8.1447444739E-01
  2.3428093645E+04  1.1047035256E+01  4.7792673675E+00  1.0697985178E+00  8.1003499186E-01  8.1567549085E-01
  2.3525083612E+04  1.1118111042E+01  4.7779433624E+00  1.0834404009E+00  8.1818055369E-01  8.1686505224E-01
  2.3622073579E+04  1.1189348871E+01  4.7766251692E+00  1.0971987926E+00  8.2635380936E-01  8.1804322733E-01
  2.3719063545E+04  1.1260878950E+01  4.7753413207E+00  1.1110742003E+00  8.3455593792E-01  8.1921011238E-01
  2.3816053512E+04  1.1332793264E+01  4.7741112795E+00  1.1250671318E+00  8.4278771355E-01  8.2036580364E-01
  2.3913043478E+04  1.1404871765E+01  4.7728865524E+00  1.1391780946E+00  8.5104607501E-01  8.2151039207E-01
  2.4010033445E+04  1.1477114157E+01  4.7716670949E+00  1.1534075967E+00  8.5933060808E-01  8.2264396504E-01
  2.4107023411E+04  1.1549577639E+01  4.7704651538E+00  1.1677561460E+00  8.6764162795E-01  8.2376661061E-01
  2.4204013378E+04  1.1622502909E+01  4.7693316327E+00  1.1822242504E+00  8.7598183564E-01  8.2487841756E-01
  2.4301003344E+04  1.1695594232E+01  4.7682029124E+00  1.1968124180E+00  8.8434709572E-01  8.2597947528E-01
  2.4397993311E+04  1.1768851323E+01  4.7670789537E+00  1.2115211571E+00  8.9273698977E-01  8.2706987374E-01
  2.4494983278E+04  1.1842273896E+01  4.7659597176E+00  1.2263509758E+00  9.0115109819E-01  8.2814970338E-01
  2.4591973244E+04  1.1916177466E+01  4.7649106746E+00  1.2413023826E+00  9.0959322749E-01  8.2921905509E-01
  2.4688963211E+04  1.1990291678E+01  4.7638748655E+00  1.2563758860E+00  9.1805942974E-01  8.3027802010E-01
  2.4785953177E+04  1.2064573557E+01  4.7628433414E+00  1.2715719944E+00  9.2654871766E-01  8.3132668995E-01
  2.4882943144E+04  1.2139022822E+01  4.7618160680E+00  1.2868912166E+00  9.3506066897E-01  8.3236515645E-01
  2.4979933110E+04  1.2213827932E+01  4.7608314515E+00  1.3023340611E+00  9.4359749712E-01  8.3339351156E-01
  2.5076923077E+04  1.2288973069E+01  4.7598855864E+00  1.3179726942E+00  9.5219603719E-01  8.3441184842E-01
  2.5173913043E+04  1.2364287778E+01  4.7589435594E+00  1.3337563009E+00  9.6082623237E-01  8.3542027776E-01
  2.5270903010E+04  1.2439771787E+01  4.7580053402E+00  1.3496669019E+00  9.6947793776E-01  8.3641889290E-01
  2.5367892977E+04  1.2515457492E+01  4.7570776611E+00  1.3657050229E+00  9.7815120779E-01  8.3740777872E-01
  2.5464882943E+04  1.2591628203E+01  4.7562186997E+00  1.3818711897E+00  9.8684987771E-01  8.3838702042E-01
  2.5561872910E+04  1.2667970289E+01  4.7553631579E+00  1.3981659285E+00  9.9556890371E-01  8.3935670351E-01
  2.5658862876E+04  1.2744483483E+01  4.7545110091E+00  1.4145897655E+00  1.0043078548E+00  8.4031691371E-01
  2.5755852843E+04  1.2821167519E+01  4.7536622273E+00  1.4311432268E+00  1.0130662996E+00  8.4126773691E-01
  2.5852842809E+04  1.2898216237E+01  4.7528580751E+00  1.4478268389E+00  1.0218469335E+00  8.4220925914E-01
  2.5949832776E+04  1.2975574028E+01  4.7520860685E+00  1.4646411284E+00  1.0306485095E+00  8.4314156651E-01
  2.6046822742E+04  1.3053104587E+01  4.7513170665E+00  1.4815866219E+00  1.0394684252E+00  8.4406474514E-01
  2.6143812709E+04  1.3130807654E+01  4.7505510466E+00  1.4986638463E+00  1.0483062503E+00  8.4497888117E-01
  2.6240802676E+04  1.3208683631E+01  4.7497881318E+00  1.5158733284E+00  1.0571615655E+00  8.4588406064E-01
  2.6337792642E+04  1.3287044470E+01  4.7490968565E+00  1.5332155953E+00  1.0660394052E+00  8.4678036766E-01
  2.6434782609E+04  1.3365579585E+01  4.7484082222E+00  1.5506911742E+00  1.0749340035E+00  8.4766787937E-01
  2.6531772575E+04  1.3444288724E+01  4.7477222092E+00  1.5683005924E+00  1.0838449316E+00  8.4854667609E-01
  2.6628762542E+04  1.3523171633E+01  4.7470387980E+00  1.5860443773E+00  1.0927717611E+00  8.4941683861E-01
  2.6725752508E+04  1.3602327724E+01  4.7463808121E+00  1.6039230564E+00  1.1017159486E+00  8.5027844782E-01
  2.6822742475E+04  1.3681853635E+01  4.7457699015E+00  1.6219371574E+00  1.1106789622E+00  8.5113158456E-01
  2.6919732441E+04  1.3761554933E+01  4.7451612742E+00  1.6400872082E+00  1.1196567352E+00  8.5197632941E-01
  2.7016722408E+04  1.3841431370E+01  4.7445549133E+00  1.6583737365E+00  1.1286488424E+00  8.5281276102E-01
  2.7113712375E+04  1.3921482699E+01  4.7439508025E+00  1.6767972706E+00  1.1376548591E+00  8.5364095785E-01
  2.7210702341E+04  1.4001872909E+01  4.7433882023E+00  1.6953583384E+00  1.1466777582E+00  8.5446097160E-01
  2.7307692308E+04  1.4082551519E+01  4.7428544643E+00  1.7140574683E+00  1.1557161527E+00  8.5527321859E-01
  2.7404682274E+04  1.4163406484E+01  4.7423226784E+00  1.7328953324E+00  1.1647673927E+00  8.5607881173E-01
  2.7501672241E+04  1.4244437561E+01  4.7417928306E+00  1.7518729302E+00  1.1738312683E+00  8.5687870336E-01
  2.7598662207E+04  1.4325644513E+01  4.7412649070E+00  1.7709901895E+00  1.1829070867E+00  8.5767289933E-01
  2.7695652174E+04  1.4407225093E+01  4.7407886260E+00  1.7902476391E+00  1.1919989287E+00  8.5846140973E-01
  2.7792642140E+04  1.4489042673E+01  4.7403290553E+00  1.8096458080E+00  1.2011033605E+00  8.5924428343E-01
  2.7889632107E+04  1.4571037433E+01  4.7398711300E+00  1.8291852252E+00  1.2102186233E+00  8.6002156880E-01
  2.7986622074E+04  1.4653209138E+01  4.7394148384E+00  1.8488664201E+00  1.2193443031E+00  8.6079331377E-01
  2.8083612040E+04  1.4735557556E+01  4.7389601691E+00  1.8686899219E+00  1.2284799872E+00  8.6155956585E-01
  2.8180602007E+04  1.4818287374E+01  4.7385615858E+00  1.8886562601E+00  1.2376304095E+00  8.6232037205E-01
  2.8277591973E+04  1.4901228860E+01  4.7381733497E+00  1.9087659642E+00  1.2467909899E+00  8.6307577899E-01
  2.8374581940E+04  1.4984348208E+01  4.7377864745E+00  1.9290195640E+00  1.2559604839E+00  8.6382583281E-01
  2.8471571906E+04  1.5067645190E+01  4.7374009510E+00  1.9494175891E+00  1.2651384852E+00  8.6457057925E-01
  2.8568561873E+04  1.5151119578E+01  4.7370167698E+00  1.9699605696E+00  1.2743245887E+00  8.6531006360E-01
  2.8665551839E+04  1.5234960502E+01  4.7366876780E+00  1.9906490355E+00  1.2835236823E+00  8.6604433073E-01
  2.8762541806E+04  1.5319009516E+01  4.7363681034E+00  2.0114835169E+00  1.2927310287E+00  8.6677342509E-01
  2.8859531773E+04  1.5403236930E+01  4.7360496261E+00  2.0324645440E+00  1.3019454115E+00  8.6749739070E-01
  2.8956521739E+04  1.5487642521E+01  4.7357322386E+00  2.0535926472E+00  1.3111664330E+00  8.6821627120E-01
  2.9053511706E+04  1.5572226067E+01  4.7354159336E+00  2.0748683570E+00  1.3203936973E+00  8.6893010977E-01
  2.9150501672E+04  1.5657143352E+01  4.7351485156E+00  2.0962922040E+00  1.3296317055E+00  8.6963894923E-01
  2.9247491639E+04  1.5742282225E+01  4.7348950774E+00  2.1178647189E+00  1.3388766342E+00  8.7034283196E-01
  2.9344481605E+04  1.5827599891E+01  4.7346424918E+00  2.1395864325E+00  1.3481267676E+00  8.7104179998E-01
  2.9441471572E+04  1.5913096130E+01  4.7343907530E+00  2.1614578757E+00  1.3573817181E+00  8.7173589488E-01
  2.9538461538E+04  1.5998770727E+01  4.7341398555E+00  2.1834795796E+00  1.3666410999E+00  8.7242515787E-01
  2.9635451505E+04  1.6084733424E+01  4.7339266573E+00  2.2056520753E+00  1.3759084480E+00  8.7310962978E-01
  2.9732441472E+04  1.6170943247E+01  4.7337369675E+00  2.2279758940E+00  1.3851820006E+00  8.7378935160E-01
  2.9829431438E+04  1.6257332107E+01  4.7335479030E+00  2.2504515672E+00  1.3944589771E+00  8.7446436532E-01
  2.9926421405E+04  1.6343899792E+01  4.7333594598E+00  2.2730796262E+00  1.4037390006E+00  8.7513471252E-01
  3.0023411371E+04  1.6430646091E+01  4.7331716338E+00  2.2959027438E+00  1.4130376593E+00  8.7580043433E-01
  3.0120401338E+04  1.6517630464E+01  4.7330055261E+00  2.3190135838E+00  1.4223912664E+00  8.7646157145E-01
  3.0217391304E+04  1.6604899550E+01  4.7328772796E+00  2.3422813698E+00  1.4317512620E+00  8.7711816412E-01
  3.0314381271E+04  1.6692347833E+01  4.7327494476E+00  2.3657066561E+00  1.4411131536E+00  8.7777025214E-01
  3.0411371237E+04  1.6779975105E+01  4.7326220273E+00  2.3892899972E+00  1.4504765677E+00  8.7841787492E-01
  3.0508361204E+04  1.6867781162E+01  4.7324950162E+00  2.4130319477E+00  1.4598411326E+00  8.7906107140E-01
  3.0605351171E+04  1.6955768160E+01  4.7323691918E+00  2.4369330626E+00  1.4692065723E+00  8.7969988012E-01
  3.0702341137E+04  1.7044104994E+01  4.7323000966E+00  2.4609938966E+00  1.4785792179E+00  8.8033433923E-01
  3.0799331104E+04  1.7132621251E+01  4.7322312204E+00  2.4852150051E+00  1.4879520538E+00  8.8096448643E-01
  3.0896321070E+04  1.7221316729E+01  4.7321625618E+00  2.5095969432E+00  1.4973247188E+00  8.8159035906E-01
  3.0993311037E+04  1.7310191226E+01  4.7320941193E+00  2.5341402665E+00  1.5066968542E+00  8.8221199403E-01
  3.1090301003E+04  1.7399244542E+01  4.7320258917E+00  2.5588455304E+00  1.5160681038E+00  8.8282942789E-01
  3.1187290970E+04  1.7488582677E+01  4.7319899453E+00  2.5837132907E+00  1.5254422544E+00  8.8344269679E-01
