#[MATERIAL DEFINITION FOR MC-GPU: interaction mean free path and sampling data from PENELOPE 2006]
#[MATERIAL NAME]
# Marrow_Bone03_15                                              
#[NOMINAL DENSITY (g/cm^3)]
#   1.22371000
#[NUMBER OF DATA VALUES]
#   1495
#[MEAN FREE PATHS (cm) (ie, average distance between interactions)]
#[Energy (eV)     | Rayleigh        | Compton         | Photoelectric   | TOTAL (+pair prod) (cm) | Rayleigh: max cumul prob F^2]
  5.0000000000E+03  1.3926920685E+00  6.6630814398E+00  9.2984765435E-03  9.2240189476E-03  2.8654835414E-01
  5.0969899666E+03  1.4205055537E+00  6.6081556117E+00  9.8062684222E-03  9.7247041236E-03  2.9143636806E-01
  5.1939799331E+03  1.4485225309E+00  6.5555205116E+00  1.0331288364E-02  1.0242097500E-02  2.9626808316E-01
  5.2909698997E+03  1.4767387154E+00  6.5050401422E+00  1.0873775842E-02  1.0776411354E-02  3.0104580063E-01
  5.3879598662E+03  1.5051497559E+00  6.4565882998E+00  1.1433968939E-02  1.1327855646E-02  3.0577175457E-01
  5.4849498328E+03  1.5337512492E+00  6.4100477254E+00  1.2012261803E-02  1.1896792451E-02  3.1044811677E-01
  5.5819397993E+03  1.5625387547E+00  6.3653093426E+00  1.2610633646E-02  1.2485136110E-02  3.1507700129E-01
  5.6789297659E+03  1.5915078090E+00  6.3222715737E+00  1.3227569728E-02  1.3091372813E-02  3.1966042498E-01
  5.7759197324E+03  1.6206539399E+00  6.2808397234E+00  1.3863341200E-02  1.3715740516E-02  3.2420020001E-01
  5.8729096990E+03  1.6499726803E+00  6.2409254239E+00  1.4518196487E-02  1.4358453782E-02  3.2869808914E-01
  5.9698996656E+03  1.6794595864E+00  6.2024461292E+00  1.5192329391E-02  1.5019672661E-02  3.3315581195E-01
  6.0668896321E+03  1.7091104960E+00  6.1653245139E+00  1.5887680448E-02  1.5701262217E-02  3.3757498971E-01
  6.1638795987E+03  1.7389219717E+00  6.1294878236E+00  1.6603686135E-02  1.6402637609E-02  3.4195710731E-01
  6.2608695652E+03  1.7688912578E+00  6.0948675779E+00  1.7342095811E-02  1.7125470663E-02  3.4630360833E-01
  6.3578595318E+03  1.7990156578E+00  6.0613996248E+00  1.8107758564E-02  1.7874447702E-02  3.5061592898E-01
  6.4548494983E+03  1.8293001678E+00  6.0290531485E+00  1.8894717669E-02  1.8643719569E-02  3.5489531183E-01
  6.5518394649E+03  1.8597438739E+00  5.9977769833E+00  1.9706259071E-02  1.9436445907E-02  3.5914286785E-01
  6.6488294314E+03  1.8903361757E+00  5.9674873924E+00  2.0540968584E-02  2.0251205196E-02  3.6335969255E-01
  6.7458193980E+03  1.9210743207E+00  5.9381342424E+00  2.1398041890E-02  2.1087173164E-02  3.6754686694E-01
  6.8428093645E+03  1.9519555869E+00  5.9096704576E+00  2.2277738605E-02  2.1944559954E-02  3.7170545842E-01
  6.9397993311E+03  1.9829772916E+00  5.8820518137E+00  2.3180317471E-02  2.2823573397E-02  3.7583648212E-01
  7.0367892977E+03  2.0141376335E+00  5.8552396270E+00  2.4107934096E-02  2.3726257281E-02  3.7994073585E-01
  7.1337792642E+03  2.0454593660E+00  5.8292785634E+00  2.5062267014E-02  2.4654190553E-02  3.8401895095E-01
  7.2307692308E+03  2.0769165849E+00  5.8040456852E+00  2.6040569231E-02  2.5604657244E-02  3.8807185560E-01
  7.3277591973E+03  2.1085075879E+00  5.7795059106E+00  2.7043103630E-02  2.6577862242E-02  3.9210017458E-01
  7.4247491639E+03  2.1402306384E+00  5.7556262509E+00  2.8070132298E-02  2.7574008038E-02  3.9610462886E-01
  7.5217391304E+03  2.1720990578E+00  5.7324202924E+00  2.9121916534E-02  2.8593298439E-02  4.0008585703E-01
  7.6187290970E+03  2.2041166238E+00  5.7098705030E+00  3.0198716863E-02  2.9635933040E-02  4.0404434622E-01
  7.7157190635E+03  2.2362627827E+00  5.6878919815E+00  3.1300793049E-02  3.0702102732E-02  4.0798057125E-01
  7.8127090301E+03  2.2685356643E+00  5.6664586193E+00  3.2428404102E-02  3.1792000372E-02  4.1189500925E-01
  7.9096989967E+03  2.3009574936E+00  5.6456093146E+00  3.3581808291E-02  3.2905823440E-02  4.1578813932E-01
  8.0066889632E+03  2.3335207444E+00  5.6253004708E+00  3.4762538269E-02  3.4044982026E-02  4.1966041317E-01
  8.1036789298E+03  2.3662071913E+00  5.6054653848E+00  3.5987374066E-02  3.5225484303E-02  4.2351215666E-01
  8.2006688963E+03  2.3990227540E+00  5.5861021458E+00  3.7239885315E-02  3.6431490084E-02  4.2734366852E-01
  8.2976588629E+03  2.4319993656E+00  5.5672664648E+00  3.8520354576E-02  3.7663213492E-02  4.3115525278E-01
  8.3946488294E+03  2.4650968984E+00  5.5488447134E+00  3.9829063833E-02  3.8920842010E-02  4.3494721822E-01
  8.4916387960E+03  2.4983151061E+00  5.5308232934E+00  4.1166299772E-02  4.0204578348E-02  4.3871985279E-01
  8.5886287625E+03  2.5317045228E+00  5.5132942227E+00  4.2532415410E-02  4.1514705961E-02  4.4247335069E-01
  8.6856187291E+03  2.5652121994E+00  5.4961275675E+00  4.3927618161E-02  4.2851328734E-02  4.4620789050E-01
  8.7826086957E+03  2.5988426983E+00  5.4793218909E+00  4.5352187886E-02  4.4214638625E-02  4.4992365737E-01
  8.8795986622E+03  2.6326433225E+00  5.4629545884E+00  4.6806403906E-02  4.5604843629E-02  4.5362084191E-01
  8.9765886288E+03  2.6665589586E+00  5.4469051435E+00  4.8290545009E-02  4.7022106257E-02  4.5729959934E-01
  9.0735785953E+03  2.7006113170E+00  5.4312038607E+00  4.9812290741E-02  4.8473627473E-02  4.6096002545E-01
  9.1705685619E+03  2.7348209262E+00  5.4158723057E+00  5.1367315083E-02  4.9955216715E-02  4.6460221795E-01
  9.2675585284E+03  2.7691421756E+00  5.4008203217E+00  5.2953611011E-02  5.1464862043E-02  4.6822628151E-01
  9.3645484950E+03  2.8036286308E+00  5.3861263107E+00  5.4571466113E-02  5.3002772615E-02  4.7183231829E-01
  9.4615384615E+03  2.8382464036E+00  5.3717218648E+00  5.6221167513E-02  5.4569112093E-02  4.7542037938E-01
  9.5585284281E+03  2.8729896317E+00  5.3575901497E+00  5.7903118240E-02  5.6164164077E-02  4.7899050178E-01
  9.6555183946E+03  2.9079069018E+00  5.3437918202E+00  5.9617536091E-02  5.7788065169E-02  4.8254272998E-01
  9.7525083612E+03  2.9429306458E+00  5.3302192098E+00  6.1364666969E-02  5.9440912495E-02  4.8607712023E-01
  9.8494983278E+03  2.9781308084E+00  5.3169617714E+00  6.3144796359E-02  6.1122915509E-02  4.8959371947E-01
  9.9464882943E+03  3.0134553979E+00  5.3039378466E+00  6.4958209309E-02  6.2834210598E-02  4.9309250244E-01
  1.0043478261E+04  3.0489250791E+00  5.2911681819E+00  6.6812933376E-02  6.4582208450E-02  4.9657344438E-01
  1.0140468227E+04  3.0845531075E+00  5.2786594534E+00  6.8711630754E-02  6.6369266082E-02  5.0003652859E-01
  1.0237458194E+04  3.1202974620E+00  5.2663536298E+00  7.0645293947E-02  6.8186816598E-02  5.0348174610E-01
  1.0334448161E+04  3.1562323096E+00  5.2543306921E+00  7.2614222659E-02  7.0035076211E-02  5.0690909522E-01
  1.0431438127E+04  3.1922641918E+00  5.2424752058E+00  7.4618716237E-02  7.1914144239E-02  5.1031858115E-01
  1.0528428094E+04  3.2285023845E+00  5.2309034697E+00  7.6659073679E-02  7.3824258780E-02  5.1371021101E-01
  1.0625418060E+04  3.2648423487E+00  5.2194930223E+00  7.8735593630E-02  7.5765501644E-02  5.1708394084E-01
  1.0722408027E+04  3.3013724811E+00  5.2083327711E+00  8.0848574391E-02  7.7738093632E-02  5.2043970435E-01
  1.0819397993E+04  3.3380231899E+00  5.1973430007E+00  8.2998313922E-02  7.9742132853E-02  5.2377744429E-01
  1.0916387960E+04  3.3748514440E+00  5.1865763339E+00  8.5185109840E-02  8.1777813211E-02  5.2709711128E-01
  1.1013377926E+04  3.4118151509E+00  5.1759843222E+00  8.7409259428E-02  8.3845245987E-02  5.3039866351E-01
  1.1110367893E+04  3.4489477907E+00  5.1655944338E+00  8.9671059635E-02  8.5944602027E-02  5.3368206639E-01
  1.1207357860E+04  3.4862263219E+00  5.1553785963E+00  9.1976146274E-02  8.8080897448E-02  5.3694729222E-01
  1.1304347826E+04  3.5236696894E+00  5.1453496899E+00  9.4333801756E-02  9.0262488427E-02  5.4019430182E-01
  1.1401337793E+04  3.5612644255E+00  5.1354896763E+00  9.6730830695E-02  9.2477097778E-02  5.4342302259E-01
  1.1498327759E+04  3.5990249367E+00  5.1258068884E+00  9.9167543925E-02  9.4724878749E-02  5.4663338618E-01
  1.1595317726E+04  3.6369367945E+00  5.1162834918E+00  1.0164425202E-01  9.7005953290E-02  5.4982533197E-01
  1.1692307692E+04  3.6750209357E+00  5.1069328220E+00  1.0416126530E-01  9.9320475549E-02  5.5299880682E-01
  1.1789297659E+04  3.7132503498E+00  5.0977278967E+00  1.0671889382E-01  1.0166854726E-01  5.5615376476E-01
  1.1886287625E+04  3.7516646738E+00  5.0886961439E+00  1.0931744739E-01  1.0405033688E-01  5.5929016673E-01
  1.1983277592E+04  3.7902115782E+00  5.0797925294E+00  1.1195723556E-01  1.0646591076E-01  5.6240796750E-01
  1.2080267559E+04  3.8289627007E+00  5.0710672342E+00  1.1463856764E-01  1.0891546839E-01  5.6550710040E-01
  1.2177257525E+04  3.8678265107E+00  5.0624486869E+00  1.1736175267E-01  1.1139902208E-01  5.6858750394E-01
  1.2274247492E+04  3.9069211066E+00  5.0540180781E+00  1.2012709947E-01  1.1391682275E-01  5.7164912408E-01
  1.2371237458E+04  3.9461007003E+00  5.0456692082E+00  1.2293491659E-01  1.1646880611E-01  5.7469191391E-01
  1.2468227425E+04  3.9855455129E+00  5.0375221679E+00  1.2578551237E-01  1.1905529912E-01  5.7771583343E-01
  1.2565217391E+04  4.0250743764E+00  5.0294512604E+00  1.2869777085E-01  1.2169278833E-01  5.8072085223E-01
  1.2662207358E+04  4.0648414793E+00  5.0215548131E+00  1.3166336762E-01  1.2437376914E-01  5.8370695824E-01
  1.2759197324E+04  4.1047292091E+00  5.0137535990E+00  1.3467375145E-01  1.2709024171E-01  5.8667410458E-01
  1.2856187291E+04  4.1448148526E+00  5.0060933511E+00  1.3772924765E-01  1.2984241066E-01  5.8962224331E-01
  1.2953177258E+04  4.1850696155E+00  4.9985532340E+00  1.4083018135E-01  1.3263033638E-01  5.9255133349E-01
  1.3050167224E+04  4.2254715592E+00  4.9911168078E+00  1.4397687752E-01  1.3545408100E-01  5.9546134096E-01
  1.3147157191E+04  4.2661016513E+00  4.9838296762E+00  1.4716966096E-01  1.3831385499E-01  5.9835223814E-01
  1.3244147157E+04  4.3068194770E+00  4.9766066290E+00  1.5040885631E-01  1.4120953606E-01  6.0122399647E-01
  1.3341137124E+04  4.3478307128E+00  4.9695633165E+00  1.5369478806E-01  1.4414152244E-01  6.0407657715E-01
  1.3438127090E+04  4.3889337442E+00  4.9625823322E+00  1.5702778051E-01  1.4710958345E-01  6.0690994614E-01
  1.3535117057E+04  4.4302614974E+00  4.9557353607E+00  1.6040815782E-01  1.5011400526E-01  6.0972407613E-01
  1.3632107023E+04  4.4717582364E+00  4.9489892818E+00  1.6383624399E-01  1.5315477325E-01  6.1251894634E-01
  1.3729096990E+04  4.5133979729E+00  4.9423277784E+00  1.6731409408E-01  1.5623342052E-01  6.1529454237E-01
  1.3826086957E+04  4.5552969867E+00  4.9358097953E+00  1.7084333687E-01  1.5935133966E-01  6.1805086391E-01
  1.3923076923E+04  4.5972879856E+00  4.9293458823E+00  1.7442141125E-01  1.6250577935E-01  6.2078789218E-01
  1.4020066890E+04  4.6395532628E+00  4.9230268845E+00  1.7804864254E-01  1.6569712403E-01  6.2350560031E-01
  1.4117056856E+04  4.6819568542E+00  4.9167818814E+00  1.8172535586E-01  1.6892518540E-01  6.2620396820E-01
  1.4214046823E+04  4.7245295362E+00  4.9106242135E+00  1.8545187623E-01  1.7219006899E-01  6.2888298232E-01
  1.4311036789E+04  4.7673544639E+00  4.9045920756E+00  1.8922852850E-01  1.7549198547E-01  6.3154263545E-01
  1.4408026756E+04  4.8102743824E+00  4.8986080163E+00  1.9305563735E-01  1.7883067256E-01  6.3418292651E-01
  1.4505016722E+04  4.8534825093E+00  4.8927610215E+00  1.9693352733E-01  1.8220655588E-01  6.3680386037E-01
  1.4602006689E+04  4.8968343733E+00  4.8869816625E+00  2.0086252285E-01  1.8561938438E-01  6.3940544759E-01
  1.4698996656E+04  4.9403418205E+00  4.8812738354E+00  2.0484294816E-01  1.8906921119E-01  6.4198770427E-01
  1.4795986622E+04  4.9841345312E+00  4.8756937901E+00  2.0887512736E-01  1.9255634551E-01  6.4455065186E-01
  1.4892976589E+04  5.0280254981E+00  4.8701565200E+00  2.1295938442E-01  1.9608041073E-01  6.4709431313E-01
  1.4989966555E+04  5.0721746126E+00  4.8647302806E+00  2.1709604315E-01  1.9964178026E-01  6.4961869458E-01
  1.5086956522E+04  5.1165169603E+00  4.8593850350E+00  2.2132490627E-01  2.0327363524E-01  6.5212380246E-01
  1.5183946488E+04  5.1609590820E+00  4.8540798596E+00  2.2561273724E-01  2.0694727947E-01  6.5460964912E-01
  1.5280936455E+04  5.2057525592E+00  4.8489194150E+00  2.2995539840E-01  2.1065953771E-01  6.5707625269E-01
  1.5377926421E+04  5.2506533724E+00  4.8437993961E+00  2.3435323360E-01  2.1440984482E-01  6.5952363687E-01
  1.5474916388E+04  5.2957275427E+00  4.8387466591E+00  2.3880658663E-01  2.1819836584E-01  6.6195183076E-01
  1.5571906355E+04  5.3410905048E+00  4.8338072150E+00  2.4331580122E-01  2.2202540365E-01  6.6436086863E-01
  1.5668896321E+04  5.3865567566E+00  4.8289034364E+00  2.4788122100E-01  2.2589048618E-01  6.6675078974E-01
  1.5765886288E+04  5.4322645810E+00  4.8240909302E+00  2.5250318956E-01  2.2979397219E-01  6.6912163817E-01
  1.5862876254E+04  5.4781983129E+00  4.8193615435E+00  2.5718205041E-01  2.3373582165E-01  6.7147346253E-01
  1.5959866221E+04  5.5242368998E+00  4.8146655798E+00  2.6191814699E-01  2.3771569013E-01  6.7380630709E-01
  1.6056856187E+04  5.5705738193E+00  4.8100794326E+00  2.6671182269E-01  2.4173410792E-01  6.7612020612E-01
  1.6153846154E+04  5.6170851489E+00  4.8055520510E+00  2.7156342081E-01  2.4579071205E-01  6.7841519789E-01
  1.6250836120E+04  5.6637029104E+00  4.8010559944E+00  2.7647328459E-01  2.4988527488E-01  6.8069132577E-01
  1.6347826087E+04  5.7106638194E+00  4.7966829768E+00  2.8144175721E-01  2.5401848291E-01  6.8294863799E-01
  1.6444816054E+04  5.7577595177E+00  4.7923500370E+00  2.8646918177E-01  2.5818968300E-01  6.8518718751E-01
  1.6541806020E+04  5.8049657060E+00  4.7880474064E+00  2.9155590132E-01  2.6239875500E-01  6.8740703177E-01
  1.6638795987E+04  5.8525424803E+00  4.7838739331E+00  2.9670225882E-01  2.6664649543E-01  6.8960823256E-01
  1.6735785953E+04  5.9002292612E+00  4.7797283232E+00  3.0190859719E-01  2.7093203179E-01  6.9179085580E-01
  1.6832775920E+04  5.9480441274E+00  4.7756171937E+00  3.0717525928E-01  2.7525536616E-01  6.9395497085E-01
  1.6929765886E+04  5.9962170344E+00  4.7716261131E+00  3.1250258785E-01  2.7961723370E-01  6.9610063751E-01
  1.7026755853E+04  6.0445015547E+00  4.7676611390E+00  3.1789092562E-01  2.8401674668E-01  6.9822791428E-01
  1.7123745819E+04  6.0929184182E+00  4.7637297644E+00  3.2334061524E-01  2.8845390864E-01  7.0033686579E-01
  1.7220735786E+04  6.1416940448E+00  4.7599146621E+00  3.2885199930E-01  2.9292947809E-01  7.0242756086E-01
  1.7317725753E+04  6.1905829035E+00  4.7561240164E+00  3.3442542030E-01  2.9744250916E-01  7.0450007226E-01
  1.7414715719E+04  6.2395945238E+00  4.7523611326E+00  3.4006122071E-01  3.0199295552E-01  7.0655447656E-01
  1.7511705686E+04  6.2889793441E+00  4.7487159578E+00  3.4576503538E-01  3.0658586450E-01  7.0859085398E-01
  1.7608695652E+04  6.3384790271E+00  4.7450936893E+00  3.5157115946E-01  3.1124675197E-01  7.1060928817E-01
  1.7705685619E+04  6.3880932050E+00  4.7414940581E+00  3.5744192452E-01  3.1594553461E-01  7.1260986611E-01
  1.7802675585E+04  6.4380774572E+00  4.7380074919E+00  3.6337768771E-01  3.2068316421E-01  7.1459345949E-01
  1.7899665552E+04  6.4881938222E+00  4.7345479535E+00  3.6937880619E-01  3.2545860083E-01  7.1656121415E-01
  1.7996655518E+04  6.5384263246E+00  4.7311096158E+00  3.7544563707E-01  3.3027167535E-01  7.1851317942E-01
  1.8093645485E+04  6.5889909363E+00  4.7277677584E+00  3.8157853747E-01  3.3512321644E-01  7.2044940109E-01
  1.8190635452E+04  6.6397294213E+00  4.7244655979E+00  3.8777786448E-01  3.4001246070E-01  7.2236992840E-01
  1.8287625418E+04  6.6905856888E+00  4.7211832854E+00  3.9404397516E-01  3.4493905258E-01  7.2427481385E-01
  1.8384615385E+04  6.7417210525E+00  4.7179762210E+00  4.0037722656E-01  3.4990361159E-01  7.2616411312E-01
  1.8481605351E+04  6.7930869915E+00  4.7148263767E+00  4.0677797572E-01  3.5490582434E-01  7.2803788493E-01
  1.8578595318E+04  6.8445723610E+00  4.7116951058E+00  4.1324657965E-01  3.5994506210E-01  7.2989619090E-01
  1.8675585284E+04  6.8962684266E+00  4.7086132777E+00  4.1978339534E-01  3.6502163509E-01  7.3173909541E-01
  1.8772575251E+04  6.9482670541E+00  4.7056109586E+00  4.2639434230E-01  3.7014007310E-01  7.3356666552E-01
  1.8869565217E+04  7.0003867626E+00  4.7026260110E+00  4.3307722616E-01  3.7529741455E-01  7.3537897081E-01
  1.8966555184E+04  7.0526330428E+00  4.6996601970E+00  4.3982961130E-01  3.8049143158E-01  7.3717608331E-01
  1.9063545151E+04  7.1052694931E+00  4.6968008648E+00  4.4665185706E-01  3.8572334582E-01  7.3895807732E-01
  1.9160535117E+04  7.1580286776E+00  4.6939577697E+00  4.5354432277E-01  3.9099166480E-01  7.4072502936E-01
  1.9257525084E+04  7.2109102590E+00  4.6911307380E+00  4.6050736773E-01  3.9629623339E-01  7.4247701800E-01
  1.9354515050E+04  7.2640935603E+00  4.6883784113E+00  4.6754135125E-01  4.0163787338E-01  7.4421412384E-01
  1.9451505017E+04  7.3174972573E+00  4.6856729292E+00  4.7464663260E-01  4.0701601854E-01  7.4593642867E-01
  1.9548494983E+04  7.3710250124E+00  4.6829824534E+00  4.8182357107E-01  4.1242998720E-01  7.4764400459E-01
  1.9645484950E+04  7.4247378794E+00  4.6803266566E+00  4.8907252590E-01  4.1787996236E-01  7.4933691633E-01
  1.9742474916E+04  7.4787910248E+00  4.6777547640E+00  4.9639385635E-01  4.2336669342E-01  7.5101523101E-01
  1.9839464883E+04  7.5329698918E+00  4.6751968784E+00  5.0378792165E-01  4.2888879281E-01  7.5267901832E-01
  1.9936454849E+04  7.5872741560E+00  4.6726528558E+00  5.1125508101E-01  4.3444608093E-01  7.5432835037E-01
  2.0033444816E+04  7.6419080127E+00  4.6701871969E+00  5.1881099649E-01  4.4005063584E-01  7.5596330162E-01
  2.0130434783E+04  7.6967430114E+00  4.6677580919E+00  5.2647054853E-01  4.4571181512E-01  7.5758394868E-01
  2.0227424749E+04  7.7517050801E+00  4.6653419168E+00  5.3420539536E-01  4.5140824938E-01  7.5919037030E-01
  2.0324414716E+04  7.8068460464E+00  4.6629546953E+00  5.4201590862E-01  4.5714007847E-01  7.6078264717E-01
  2.0421404682E+04  7.8623431252E+00  4.6606505162E+00  5.4990245997E-01  4.6290827299E-01  7.6236086187E-01
  2.0518394649E+04  7.9179689602E+00  4.6583583852E+00  5.5786542109E-01  4.6871119920E-01  7.6392509871E-01
  2.0615384615E+04  7.9737232395E+00  4.6560781828E+00  5.6590516368E-01  4.7454865325E-01  7.6547544371E-01
  2.0712374582E+04  8.0297692365E+00  4.6538589964E+00  5.7402205948E-01  4.8042153762E-01  7.6701198441E-01
  2.0809364548E+04  8.0860650975E+00  4.6516872107E+00  5.8221648024E-01  4.8632940246E-01  7.6853480983E-01
  2.0906354515E+04  8.1424911107E+00  4.6495265304E+00  5.9048879773E-01  4.9227123580E-01  7.7004401037E-01
  2.1003344482E+04  8.1990469711E+00  4.6473768475E+00  5.9883938375E-01  4.9824682102E-01  7.7153968152E-01
  2.1100334448E+04  8.2559921058E+00  4.6453139483E+00  6.0726861012E-01  5.0425780131E-01  7.7302193892E-01
  2.1197324415E+04  8.3130960773E+00  4.6432693117E+00  6.1577684868E-01  5.1030235625E-01  7.7449086788E-01
  2.1294314381E+04  8.3703316255E+00  4.6412349029E+00  6.2436447131E-01  5.1638006965E-01  7.7594654905E-01
  2.1391304348E+04  8.4277478067E+00  4.6392247422E+00  6.3303184988E-01  5.2249108159E-01  7.7738906473E-01
  2.1488294314E+04  8.4855359067E+00  4.6372928332E+00  6.4177935631E-01  5.2863662552E-01  7.7881849883E-01
  2.1585284281E+04  8.5434573293E+00  4.6353704237E+00  6.5060736253E-01  5.3481471073E-01  7.8023493674E-01
  2.1682274247E+04  8.6015117809E+00  4.6334574244E+00  6.5951624048E-01  5.4102510029E-01  7.8163846524E-01
  2.1779264214E+04  8.6598075592E+00  4.6315839454E+00  6.6850636216E-01  5.4726840945E-01  7.8302917239E-01
  2.1876254181E+04  8.7184209860E+00  4.6297704103E+00  6.7757809954E-01  5.5354503958E-01  7.8440714750E-01
  2.1973244147E+04  8.7771692089E+00  4.6279656032E+00  6.8673182465E-01  5.5985332643E-01  7.8577248096E-01
  2.2070234114E+04  8.8360519411E+00  4.6261694440E+00  6.9596790953E-01  5.6619302226E-01  7.8712526421E-01
  2.2167224080E+04  8.8952186778E+00  4.6244223663E+00  7.0528672623E-01  5.7256511804E-01  7.8846558967E-01
  2.2264214047E+04  8.9546667592E+00  4.6227228034E+00  7.1468864683E-01  5.7896938702E-01  7.8979355059E-01
  2.2361204013E+04  9.0142511378E+00  4.6210312488E+00  7.2417441666E-01  5.8540463300E-01  7.9110924106E-01
  2.2458193980E+04  9.0739715330E+00  4.6193476303E+00  7.3381628814E-01  5.9191736484E-01  7.9241275535E-01
  2.2555183946E+04  9.1339996189E+00  4.6177171330E+00  7.4354399079E-01  5.9846244503E-01  7.9370418164E-01
  2.2652173913E+04  9.1942916857E+00  4.6161273987E+00  7.5335791263E-01  6.0503927846E-01  7.9498360465E-01
  2.2749163880E+04  9.2547215779E+00  4.6145450004E+00  7.6325844174E-01  6.1164651294E-01  7.9625111023E-01
  2.2846153846E+04  9.3152890208E+00  4.6129698732E+00  7.7324596624E-01  6.1828387701E-01  7.9750678525E-01
  2.2943143813E+04  9.3761678596E+00  4.6114465623E+00  7.8332087434E-01  6.2495268940E-01  7.9875071760E-01
  2.3040133779E+04  9.4373132424E+00  4.6099627516E+00  7.9348355430E-01  6.3165231771E-01  7.9998299604E-01
  2.3137123746E+04  9.4985980055E+00  4.6084856485E+00  8.0373439443E-01  6.3838133692E-01  8.0120371014E-01
  2.3234113712E+04  9.5600218801E+00  4.6070151948E+00  8.1407378311E-01  6.4513946659E-01  8.0241295025E-01
  2.3331103679E+04  9.6217398718E+00  4.6055900729E+00  8.2450210878E-01  6.5192791288E-01  8.0361080736E-01
  2.3428093645E+04  9.6837478978E+00  4.6042085021E+00  8.3501975993E-01  6.5874640510E-01  8.0479737307E-01
  2.3525083612E+04  9.7458968852E+00  4.6028330509E+00  8.4562712511E-01  6.6559324626E-01  8.0597273954E-01
  2.3622073579E+04  9.8081865712E+00  4.6014636672E+00  8.5632459295E-01  6.7246814777E-01  8.0713699937E-01
  2.3719063545E+04  9.8707310959E+00  4.6001281061E+00  8.6711255211E-01  6.7937196718E-01  8.0829024558E-01
  2.3816053512E+04  9.9336110854E+00  4.5988452967E+00  8.7799139132E-01  6.8630527112E-01  8.0943257119E-01
  2.3913043478E+04  9.9966336434E+00  4.5975680565E+00  8.8896149937E-01  6.9326585346E-01  8.1056406431E-01
  2.4010033445E+04  1.0059798513E+01  4.5962963388E+00  9.0002326511E-01  7.0025341826E-01  8.1168480982E-01
  2.4107023411E+04  1.0123155914E+01  4.5950420542E+00  9.1117707742E-01  7.0726819720E-01  8.1279489325E-01
  2.4204013378E+04  1.0186917177E+01  4.5938547184E+00  9.2242332528E-01  7.1431215186E-01  8.1389440072E-01
  2.4301003344E+04  1.0250822642E+01  4.5926724359E+00  9.3376239770E-01  7.2138228903E-01  8.1498341893E-01
  2.4397993311E+04  1.0314872056E+01  4.5914951652E+00  9.4519468374E-01  7.2847830625E-01  8.1606203506E-01
  2.4494983278E+04  1.0379065171E+01  4.5903228653E+00  9.5672057253E-01  7.3559989926E-01  8.1713033673E-01
  2.4591973244E+04  1.0443679456E+01  4.5892192210E+00  9.6834045326E-01  7.4274983601E-01  8.1818841191E-01
  2.4688963211E+04  1.0508477149E+01  4.5881288179E+00  9.8005471517E-01  7.4992524852E-01  8.1923634891E-01
  2.4785953177E+04  1.0573420456E+01  4.5870429476E+00  9.9186374754E-01  7.5712541738E-01  8.2027423627E-01
  2.4882943144E+04  1.0638509133E+01  4.5859615736E+00  1.0037679397E+00  7.6435003288E-01  8.2130216276E-01
  2.4979933110E+04  1.0703909039E+01  4.5849220525E+00  1.0157676811E+00  7.7160070592E-01  8.2232021729E-01
  2.5076923077E+04  1.0769606249E+01  4.5839205797E+00  1.0279208236E+00  7.7891001675E-01  8.2332848979E-01
  2.5173913043E+04  1.0835450746E+01  4.5829231904E+00  1.0401865916E+00  7.8625192831E-01  8.2432708615E-01
  2.5270903010E+04  1.0901442291E+01  4.5819298522E+00  1.0525505477E+00  7.9361755827E-01  8.2531609642E-01
  2.5367892977E+04  1.0967609250E+01  4.5809471110E+00  1.0650130947E+00  8.0100693988E-01  8.2629560298E-01
  2.5464882943E+04  1.1034199690E+01  4.5800315543E+00  1.0775746355E+00  8.0842286260E-01  8.2726568848E-01
  2.5561872910E+04  1.1100938986E+01  4.5791196601E+00  1.0902355729E+00  8.1586164549E-01  8.2822643582E-01
  2.5658862876E+04  1.1167826903E+01  4.5782113998E+00  1.1029963102E+00  8.2332296541E-01  8.2917792808E-01
  2.5755852843E+04  1.1234863209E+01  4.5773067455E+00  1.1158572503E+00  8.3080649802E-01  8.3012024845E-01
  2.5852842809E+04  1.1302216218E+01  4.5764458321E+00  1.1288187966E+00  8.3831419279E-01  8.3105348025E-01
  2.5949832776E+04  1.1369837634E+01  4.5756165114E+00  1.1418813523E+00  8.4584513408E-01  8.3197770680E-01
  2.6046822742E+04  1.1437609097E+01  4.5747904339E+00  1.1550453209E+00  8.5339741636E-01  8.3289301146E-01
  2.6143812709E+04  1.1505530378E+01  4.5739675751E+00  1.1683111058E+00  8.6097071223E-01  8.3379947752E-01
  2.6240802676E+04  1.1573601818E+01  4.5731480524E+00  1.1816791105E+00  8.6856470168E-01  8.3469718823E-01
  2.6337792642E+04  1.1642091712E+01  4.5723985288E+00  1.1951497388E+00  8.7618302554E-01  8.3558622500E-01
  2.6434782609E+04  1.1710732926E+01  4.5716518824E+00  1.2087233943E+00  8.8382148282E-01  8.3646666291E-01
  2.6531772575E+04  1.1779525235E+01  4.5709080918E+00  1.2224004809E+00  8.9147974386E-01  8.3733857989E-01
  2.6628762542E+04  1.1848468419E+01  4.5701671356E+00  1.2361814024E+00  8.9915747830E-01  8.3820205431E-01
  2.6725752508E+04  1.1917647033E+01  4.5694512131E+00  1.2500665628E+00  9.0685572116E-01  8.3905716453E-01
  2.6822742475E+04  1.1987143270E+01  4.5687813805E+00  1.2640563662E+00  9.1457551872E-01  8.3990398891E-01
  2.6919732441E+04  1.2056791729E+01  4.5681140633E+00  1.2781512167E+00  9.2231390258E-01  8.4074260549E-01
  2.7016722408E+04  1.2126592192E+01  4.5674492430E+00  1.2923515185E+00  9.3007054111E-01  8.4157309057E-01
  2.7113712375E+04  1.2196544444E+01  4.5667869013E+00  1.3066576759E+00  9.3784510222E-01  8.4239552021E-01
  2.7210702341E+04  1.2266786180E+01  4.5661652271E+00  1.3210700933E+00  9.4563971164E-01  8.4320993922E-01
  2.7307692308E+04  1.2337274995E+01  4.5655719127E+00  1.3355891752E+00  9.5345334380E-01  8.4401682158E-01
  2.7404682274E+04  1.2407916792E+01  4.5649807786E+00  1.3502154178E+00  9.6128405452E-01  8.4481746025E-01
  2.7501672241E+04  1.2478711360E+01  4.5643918090E+00  1.3649495261E+00  9.6913166211E-01  8.4561296193E-01
  2.7598662207E+04  1.2549658487E+01  4.5638049885E+00  1.3797915215E+00  9.7699563852E-01  8.4640331776E-01
  2.7695652174E+04  1.2620921701E+01  4.5632686791E+00  1.3947418088E+00  9.8487890152E-01  8.4718852370E-01
  2.7792642140E+04  1.2692387995E+01  4.5627488963E+00  1.4098007929E+00  9.9277894445E-01  8.4796862159E-01
  2.7889632107E+04  1.2764007888E+01  4.5622309832E+00  1.4249688788E+00  1.0006944656E+00  8.4874365285E-01
  2.7986622074E+04  1.2835781172E+01  4.5617149265E+00  1.4402464716E+00  1.0086251330E+00  8.4951365852E-01
  2.8083612040E+04  1.2907707643E+01  4.5612007132E+00  1.4556339765E+00  1.0165706146E+00  8.5027867920E-01
  2.8180602007E+04  1.2979953470E+01  4.5607413222E+00  1.4711317987E+00  1.0245342893E+00  8.5103875512E-01
  2.8277591973E+04  1.3052380829E+01  4.5602922563E+00  1.4867403435E+00  1.0325128244E+00  8.5179392611E-01
  2.8374581940E+04  1.3124962257E+01  4.5598447720E+00  1.5024600162E+00  1.0405052865E+00  8.5254423161E-01
  2.8471571906E+04  1.3197697554E+01  4.5593988584E+00  1.5182912225E+00  1.0485113451E+00  8.5328971068E-01
  2.8568561873E+04  1.3270586519E+01  4.5589545046E+00  1.5342343677E+00  1.0565306699E+00  8.5403040200E-01
  2.8665551839E+04  1.3343779255E+01  4.5585639932E+00  1.5502898575E+00  1.0645667396E+00  8.5476634387E-01
  2.8762541806E+04  1.3417149973E+01  4.5581829887E+00  1.5664580977E+00  1.0726161107E+00  8.5549757424E-01
  2.8859531773E+04  1.3490675085E+01  4.5578032984E+00  1.5827394939E+00  1.0806778671E+00  8.5622413067E-01
  2.8956521739E+04  1.3564354395E+01  4.5574249136E+00  1.5991344521E+00  1.0887516811E+00  8.5694605038E-01
  2.9053511706E+04  1.3638187710E+01  4.5570478253E+00  1.6156433781E+00  1.0968372251E+00  8.5766337022E-01
  2.9150501672E+04  1.3712295197E+01  4.5567185359E+00  1.6322666780E+00  1.1049376887E+00  8.5837612669E-01
  2.9247491639E+04  1.3786590300E+01  4.5564030846E+00  1.6490047577E+00  1.1130502877E+00  8.5908435595E-01
  2.9344481605E+04  1.3861039976E+01  4.5560886994E+00  1.6658580235E+00  1.1211737452E+00  8.5978809381E-01
  2.9441471572E+04  1.3935644035E+01  4.5557753732E+00  1.6828268816E+00  1.1293077370E+00  8.6048737574E-01
  2.9538461538E+04  1.4010402287E+01  4.5554630989E+00  1.6999117382E+00  1.1374519396E+00  8.6118223688E-01
  2.9635451505E+04  1.4085396316E+01  4.5551877309E+00  1.7171129997E+00  1.1456088392E+00  8.6187271201E-01
  2.9732441472E+04  1.4160595618E+01  4.5549354613E+00  1.7344310726E+00  1.1537771309E+00  8.6255883636E-01
  2.9829431438E+04  1.4235949525E+01  4.5546840271E+00  1.7518663634E+00  1.1619547740E+00  8.6324064628E-01
  2.9926421405E+04  1.4311457852E+01  4.5544334230E+00  1.7694192785E+00  1.1701414487E+00  8.6391817756E-01
  3.0023411371E+04  1.4387120412E+01  4.5541836435E+00  1.7871235561E+00  1.1783513270E+00  8.6459146559E-01
  3.0120401338E+04  1.4462980262E+01  4.5539552157E+00  1.8050524669E+00  1.1866170077E+00  8.6526054538E-01
  3.0217391304E+04  1.4539071159E+01  4.5537638419E+00  1.8231025555E+00  1.1948941077E+00  8.6592545156E-01
  3.0314381271E+04  1.4615316612E+01  4.5535730895E+00  1.8412742463E+00  1.2031793538E+00  8.6658621838E-01
  3.0411371237E+04  1.4691716437E+01  4.5533829543E+00  1.8595679636E+00  1.2114724245E+00  8.6724287972E-01
  3.0508361204E+04  1.4768270454E+01  4.5531934324E+00  1.8779841323E+00  1.2197729991E+00  8.6789546909E-01
  3.0605351171E+04  1.4844980236E+01  4.5530052791E+00  1.8965231769E+00  1.2280808256E+00  8.6854401966E-01
  3.0702341137E+04  1.4921971167E+01  4.5528725359E+00  1.9151855222E+00  1.2364004356E+00  8.6918856423E-01
  3.0799331104E+04  1.4999116676E+01  4.5527402152E+00  1.9339715933E+00  1.2447267042E+00  8.6982913526E-01
  3.0896321070E+04  1.5076416582E+01  4.5526083144E+00  1.9528818151E+00  1.2530593163E+00  8.7046576485E-01
  3.0993311037E+04  1.5153870711E+01  4.5524768308E+00  1.9719166129E+00  1.2613979575E+00  8.7109848478E-01
  3.1090301003E+04  1.5231478884E+01  4.5523457618E+00  1.9910764117E+00  1.2697423152E+00  8.7172732649E-01
  3.1187290970E+04  1.5309322067E+01  4.5522463121E+00  2.0103616370E+00  1.2780951029E+00  8.7235232108E-01
