#[MATERIAL DEFINITION FOR MC-GPU: interaction mean free path and sampling data from PENELOPE 2006]
#[MATERIAL NAME]
# Marrow_Bone05_17                                              
#[NOMINAL DENSITY (g/cm^3)]
#   1.34219000
#[NUMBER OF DATA VALUES]
#   1495
#[MEAN FREE PATHS (cm) (ie, average distance between interactions)]
#[Energy (eV)     | Rayleigh        | Compton         | Photoelectric   | TOTAL (+pair prod) (cm) | Rayleigh: max cumul prob F^2]
  5.0000000000E+03  1.1419404804E+00  6.3485259657E+00  6.6603417552E-03  6.6148212450E-03  2.7553088196E-01
  5.0969899666E+03  1.1640853699E+00  6.2934365864E+00  7.0203413739E-03  6.9705280230E-03  2.8042165872E-01
  5.1939799331E+03  1.1863863656E+00  6.2406404982E+00  7.3923738752E-03  7.3379588446E-03  2.8526098495E-01
  5.2909698997E+03  1.2088404153E+00  6.1900019878E+00  7.7766013949E-03  7.7172601034E-03  2.9005078477E-01
  5.3879598662E+03  1.2314444094E+00  6.1413951322E+00  8.1731850800E-03  8.1085766939E-03  2.9479289430E-01
  5.4849498328E+03  1.2541951915E+00  6.0947029452E+00  8.5823875074E-03  8.5121527509E-03  2.9948904919E-01
  5.5819397993E+03  1.2770895695E+00  6.0498166131E+00  9.0055009843E-03  8.9292439992E-03  3.0414094763E-01
  5.6789297659E+03  1.3001243255E+00  6.0066348070E+00  9.4415453124E-03  9.3588701264E-03  3.0875024302E-01
  5.7759197324E+03  1.3232962267E+00  5.9650630649E+00  9.8906804219E-03  9.8011724207E-03  3.1331845745E-01
  5.8729096990E+03  1.3466020352E+00  5.9250132344E+00  1.0353065354E-02  1.0256290710E-02  3.1784703891E-01
  5.9698996656E+03  1.3700385217E+00  5.8864029657E+00  1.0828858277E-02  1.0724363371E-02  3.2233741052E-01
  6.0668896321E+03  1.3936026866E+00  5.8491550924E+00  1.1319337227E-02  1.1206625859E-02  3.2679091178E-01
  6.1638795987E+03  1.4172921393E+00  5.8131969568E+00  1.1824135043E-02  1.1702698704E-02  3.3120876125E-01
  6.2608695652E+03  1.4411050584E+00  5.7784601196E+00  1.2344690198E-02  1.2213970707E-02  3.3559215185E-01
  6.3578595318E+03  1.4650396523E+00  5.7448804578E+00  1.2884768353E-02  1.2744103377E-02  3.3994227954E-01
  6.4548494983E+03  1.4891008825E+00  5.7124266448E+00  1.3439672038E-02  1.3288474863E-02  3.4426016635E-01
  6.5518394649E+03  1.5132886123E+00  5.6810475228E+00  1.4011947950E-02  1.3849552154E-02  3.4854672114E-01
  6.6488294314E+03  1.5375940916E+00  5.6506599584E+00  1.4600457848E-02  1.4426196582E-02  3.5280284694E-01
  6.7458193980E+03  1.5620154168E+00  5.6212138287E+00  1.5204544324E-02  1.5017741967E-02  3.5702944101E-01
  6.8428093645E+03  1.5865506821E+00  5.5926620530E+00  1.5824383842E-02  1.5624336545E-02  3.6122739485E-01
  6.9397993311E+03  1.6111979855E+00  5.5649603854E+00  1.6460152239E-02  1.6246127132E-02  3.6539755685E-01
  7.0367892977E+03  1.6359561928E+00  5.5380700675E+00  1.7113262550E-02  1.6884464171E-02  3.6954058165E-01
  7.1337792642E+03  1.6608464746E+00  5.5120347964E+00  1.7784814743E-02  1.7540392428E-02  3.7365707112E-01
  7.2307692308E+03  1.6858455799E+00  5.4867328416E+00  1.8473022996E-02  1.8212141849E-02  3.7774762882E-01
  7.3277591973E+03  1.7109521597E+00  5.4621290941E+00  1.9178065451E-02  1.8899857681E-02  3.8181285918E-01
  7.4247491639E+03  1.7361648208E+00  5.4381905112E+00  1.9900119679E-02  1.9603683717E-02  3.8585336680E-01
  7.5217391304E+03  1.7614959464E+00  5.4149303234E+00  2.0639362683E-02  2.0323764751E-02  3.8986968568E-01
  7.6187290970E+03  1.7869492682E+00  5.3923310964E+00  2.1395970909E-02  2.1060242946E-02  3.9386221949E-01
  7.7157190635E+03  1.8125061755E+00  5.3703082779E+00  2.2170120256E-02  2.1813254843E-02  3.9783136430E-01
  7.8127090301E+03  1.8381651154E+00  5.3488356256E+00  2.2961986081E-02  2.2582938423E-02  4.0177752075E-01
  7.9096989967E+03  1.8639467244E+00  5.3279518523E+00  2.3771743208E-02  2.3369434894E-02  4.0570109350E-01
  8.0066889632E+03  1.8898443459E+00  5.3076135502E+00  2.4600516281E-02  2.4173796393E-02  4.0960246523E-01
  8.1036789298E+03  1.9158413280E+00  5.2877538289E+00  2.5460787884E-02  2.5008026078E-02  4.1348191105E-01
  8.2006688963E+03  1.9419432560E+00  5.2683705525E+00  2.6340289164E-02  2.5860230570E-02  4.1733968467E-01
  8.2976588629E+03  1.9681797131E+00  5.2495191400E+00  2.7239212387E-02  2.6730564597E-02  4.2117604619E-01
  8.3946488294E+03  1.9945137784E+00  5.2310856736E+00  2.8157749399E-02  2.7619165336E-02  4.2499126142E-01
  8.4916387960E+03  2.0209453178E+00  5.2130563152E+00  2.9096091632E-02  2.8526176943E-02  4.2878557963E-01
  8.5886287625E+03  2.0475210877E+00  5.1955227809E+00  3.0054430107E-02  2.9451755134E-02  4.3255917058E-01
  8.6856187291E+03  2.0741923122E+00  5.1783549702E+00  3.1032955440E-02  3.0396028366E-02  4.3631219204E-01
  8.7826086957E+03  2.1009632910E+00  5.1615512438E+00  3.2031857849E-02  3.1359137531E-02  4.4004480874E-01
  8.8795986622E+03  2.1278778124E+00  5.1451886959E+00  3.3051327157E-02  3.2341234435E-02  4.4375719140E-01
  8.9765886288E+03  2.1548850683E+00  5.1291467477E+00  3.4091552797E-02  3.3342440772E-02  4.4744948139E-01
  9.0735785953E+03  2.1820051926E+00  5.1134554836E+00  3.5158093382E-02  3.4368029142E-02  4.5112176999E-01
  9.1705685619E+03  2.2092570606E+00  5.0981362134E+00  3.6247793938E-02  3.5414932427E-02  4.5477415125E-01
  9.2675585284E+03  2.2365986476E+00  5.0830987782E+00  3.7359184838E-02  3.6481681532E-02  4.5840672627E-01
  9.3645484950E+03  2.2640791452E+00  5.0684212042E+00  3.8492461653E-02  3.7568430680E-02  4.6201959499E-01
  9.4615384615E+03  2.2916673095E+00  5.0540350660E+00  3.9647819612E-02  3.8675304064E-02  4.6561281420E-01
  9.5585284281E+03  2.3193578447E+00  5.0399234428E+00  4.0825453606E-02  3.9802433089E-02  4.6918642940E-01
  9.6555183946E+03  2.3471949700E+00  5.0261465747E+00  4.2025558192E-02  4.0949967372E-02  4.7274049346E-01
  9.7525083612E+03  2.3751170661E+00  5.0125970713E+00  4.3248327597E-02  4.2118012690E-02  4.7627507038E-01
  9.8494983278E+03  2.4031877382E+00  4.9993638409E+00  4.4493955721E-02  4.3306724381E-02  4.7979021709E-01
  9.9464882943E+03  2.4313596305E+00  4.9863654436E+00  4.5762636140E-02  4.4516209735E-02  4.8328592807E-01
  1.0043478261E+04  2.4596515302E+00  4.9736224006E+00  4.7060188379E-02  4.5751920337E-02  4.8676219898E-01
  1.0140468227E+04  2.4880751805E+00  4.9611411664E+00  4.8388528972E-02  4.7015594359E-02  4.9021903331E-01
  1.0237458194E+04  2.5165927163E+00  4.9488639546E+00  4.9741097318E-02  4.8300943420E-02  4.9365644199E-01
  1.0334448161E+04  2.5452705476E+00  4.9368700225E+00  5.1118097307E-02  4.9608129290E-02  4.9707444296E-01
  1.0431438127E+04  2.5740248144E+00  4.9250446543E+00  5.2519732565E-02  5.0937237484E-02  5.0047306082E-01
  1.0528428094E+04  2.6029530514E+00  4.9135030781E+00  5.3946206454E-02  5.2288444412E-02  5.0385232241E-01
  1.0625418060E+04  2.6319618511E+00  4.9021237193E+00  5.5397722077E-02  5.3661824750E-02  5.0721221062E-01
  1.0722408027E+04  2.6611297870E+00  4.8909945676E+00  5.6874482276E-02  5.5057543949E-02  5.1055268854E-01
  1.0819397993E+04  2.6903948929E+00  4.8800365192E+00  5.8376689640E-02  5.6475687874E-02  5.1387372771E-01
  1.0916387960E+04  2.7198075762E+00  4.8693015622E+00  5.9904546503E-02  5.7916404835E-02  5.1717530712E-01
  1.1013377926E+04  2.7493304294E+00  4.8587416156E+00  6.1458254948E-02  5.9379789765E-02  5.2045741294E-01
  1.1110367893E+04  2.7789929537E+00  4.8483837472E+00  6.3038016811E-02  6.0865976412E-02  5.2372003813E-01
  1.1207357860E+04  2.8087746502E+00  4.8382000700E+00  6.4647888755E-02  6.2378654739E-02  5.2696318214E-01
  1.1304347826E+04  2.8386921521E+00  4.8282032202E+00  6.6294556475E-02  6.3923962083E-02  5.3018683470E-01
  1.1401337793E+04  2.8687334308E+00  4.8183752527E+00  6.7968477436E-02  6.5492913983E-02  5.3339095565E-01
  1.1498327759E+04  2.8989110872E+00  4.8087243081E+00  6.9669863172E-02  6.7085634862E-02  5.3657550867E-01
  1.1595317726E+04  2.9292123172E+00  4.7992326692E+00  7.1398925018E-02  6.8702229181E-02  5.3974046467E-01
  1.1692307692E+04  2.9596553437E+00  4.7899134011E+00  7.3155874113E-02  7.0342822329E-02  5.4288580155E-01
  1.1789297659E+04  2.9902165116E+00  4.7807398027E+00  7.4940921400E-02  7.2007506292E-02  5.4601150389E-01
  1.1886287625E+04  3.0209301603E+00  4.7717388010E+00  7.6754277627E-02  7.3696415953E-02  5.4911756268E-01
  1.1983277592E+04  3.0517508574E+00  4.7628659697E+00  7.8596153352E-02  7.5409621212E-02  5.5220396357E-01
  1.2080267559E+04  3.0827404143E+00  4.7541705836E+00  8.0466758941E-02  7.7147277010E-02  5.5527067246E-01
  1.2177257525E+04  3.1138198243E+00  4.7455821895E+00  8.2366304572E-02  7.8909419394E-02  5.5831765985E-01
  1.2274247492E+04  3.1450906074E+00  4.7371804727E+00  8.4295000235E-02  8.0696236214E-02  5.6134490312E-01
  1.2371237458E+04  3.1764274930E+00  4.7288610641E+00  8.6253055733E-02  8.2507715477E-02  5.6435238624E-01
  1.2468227425E+04  3.2079848600E+00  4.7207417365E+00  8.8240680688E-02  8.4344093352E-02  5.6734009955E-01
  1.2565217391E+04  3.2396075672E+00  4.7126991039E+00  9.0271794658E-02  8.6217828132E-02  5.7030804404E-01
  1.2662207358E+04  3.2714272279E+00  4.7048294565E+00  9.2340228717E-02  8.8123268398E-02  5.7325624867E-01
  1.2759197324E+04  3.3033434886E+00  4.6970551101E+00  9.4439651910E-02  9.0054428859E-02  5.7618469204E-01
  1.2856187291E+04  3.3354219736E+00  4.6894207058E+00  9.6570285995E-02  9.2011470317E-02  5.7909334762E-01
  1.2953177258E+04  3.3676382172E+00  4.6819058077E+00  9.8732352597E-02  9.3994463016E-02  5.8198219572E-01
  1.3050167224E+04  3.3999734071E+00  4.6744942301E+00  1.0092607321E-01  9.6003478343E-02  5.8485122320E-01
  1.3147157191E+04  3.4324961511E+00  4.6672304387E+00  1.0315166920E-01  9.8038681161E-02  5.8770042329E-01
  1.3244147157E+04  3.4650875164E+00  4.6600312010E+00  1.0540936180E-01  1.0010002759E-01  5.9052979530E-01
  1.3341137124E+04  3.4979211663E+00  4.6530091718E+00  1.0769937211E-01  1.0218780021E-01  5.9333934445E-01
  1.3438127090E+04  3.5308268997E+00  4.6460498859E+00  1.1002192111E-01  1.0430188788E-01  5.9612908162E-01
  1.3535117057E+04  3.5639165883E+00  4.6392230344E+00  1.1237722965E-01  1.0644250300E-01  5.9889902315E-01
  1.3632107023E+04  3.5971433405E+00  4.6324963448E+00  1.1476551846E-01  1.0860967015E-01  6.0164919066E-01
  1.3729096990E+04  3.6304851694E+00  4.6258538587E+00  1.1718789903E-01  1.1080423433E-01  6.0437961080E-01
  1.3826086957E+04  3.6640396310E+00  4.6193527697E+00  1.1964526217E-01  1.1302699018E-01  6.0709030672E-01
  1.3923076923E+04  3.6976664024E+00  4.6129061678E+00  1.2213634314E-01  1.1527649838E-01  6.0978127679E-01
  1.4020066890E+04  3.7315179650E+00  4.6066020845E+00  1.2466136307E-01  1.1755303251E-01  6.1245251894E-01
  1.4117056856E+04  3.7654806100E+00  4.6003717156E+00  1.2722054301E-01  1.1985651000E-01  6.1510403732E-01
  1.4214046823E+04  3.7995799149E+00  4.5942278998E+00  1.2981410387E-01  1.2218703101E-01  6.1773584206E-01
  1.4311036789E+04  3.8338852379E+00  4.5882075576E+00  1.3244226644E-01  1.2454476115E-01  6.2034794907E-01
  1.4408026756E+04  3.8682654430E+00  4.5822356888E+00  1.3510525140E-01  1.2692957261E-01  6.2294037986E-01
  1.4505016722E+04  3.9028812440E+00  4.5763982392E+00  1.3780327930E-01  1.2934176415E-01  6.2551316128E-01
  1.4602006689E+04  3.9376124888E+00  4.5706280778E+00  1.4053657058E-01  1.3178121549E-01  6.2806632537E-01
  1.4698996656E+04  3.9724689158E+00  4.5649288953E+00  1.4330534556E-01  1.3424799470E-01  6.3059990914E-01
  1.4795986622E+04  4.0075581048E+00  4.5593549130E+00  1.4610982445E-01  1.3674232840E-01  6.3311395439E-01
  1.4892976589E+04  4.0427249376E+00  4.5538240895E+00  1.4895022734E-01  1.3926401922E-01  6.3560850391E-01
  1.4989966555E+04  4.0781017167E+00  4.5484021366E+00  1.5182677420E-01  1.4181333323E-01  6.3808358421E-01
  1.5086956522E+04  4.1136347368E+00  4.5430600801E+00  1.5476880512E-01  1.4441558620E-01  6.4053922095E-01
  1.5183946488E+04  4.1492466836E+00  4.5377584704E+00  1.5775177480E-01  1.4704901403E-01  6.4297544535E-01
  1.5280936455E+04  4.1851450455E+00  4.5325980150E+00  1.6077261137E-01  1.4971114877E-01  6.4539229390E-01
  1.5377926421E+04  4.2211285819E+00  4.5274782765E+00  1.6383154911E-01  1.5240168051E-01  6.4778980814E-01
  1.5474916388E+04  4.2572515366E+00  4.5224250712E+00  1.6692882228E-01  1.5512074872E-01  6.5016803451E-01
  1.5571906355E+04  4.2936087670E+00  4.5174826410E+00  1.7006466506E-01  1.5786857762E-01  6.5252702412E-01
  1.5668896321E+04  4.3300478493E+00  4.5125762507E+00  1.7323931154E-01  1.6064491544E-01  6.5486683257E-01
  1.5765886288E+04  4.3666820060E+00  4.5077593747E+00  1.7645299580E-01  1.6345002019E-01  6.5718751980E-01
  1.5862876254E+04  4.4034984125E+00  4.5030241329E+00  1.7970595182E-01  1.6628390559E-01  6.5948914977E-01
  1.5959866221E+04  4.4403979672E+00  4.4983226844E+00  1.8299841353E-01  1.6914639881E-01  6.6177178183E-01
  1.6056856187E+04  4.4775384998E+00  4.4937284871E+00  1.8633061480E-01  1.7203786214E-01  6.6403546499E-01
  1.6153846154E+04  4.5148189231E+00  4.4891924007E+00  1.8970278943E-01  1.7495811196E-01  6.6628025178E-01
  1.6250836120E+04  4.5521837919E+00  4.4846880061E+00  1.9311517118E-01  1.7790704725E-01  6.6850619937E-01
  1.6347826087E+04  4.5898254945E+00  4.4803034795E+00  1.9656799373E-01  1.8088512473E-01  6.7071336937E-01
  1.6444816054E+04  4.6275746912E+00  4.4759590055E+00  2.0006149071E-01  1.8389198418E-01  6.7290182765E-01
  1.6541806020E+04  4.6654116310E+00  4.4716451682E+00  2.0359589568E-01  1.8692759029E-01  6.7507164414E-01
  1.6638795987E+04  4.7035469229E+00  4.4674569847E+00  2.0717144216E-01  1.8999246564E-01  6.7722289267E-01
  1.6735785953E+04  4.7417695657E+00  4.4632970325E+00  2.1078836359E-01  1.9308611718E-01  6.7935565080E-01
  1.6832775920E+04  4.7800941472E+00  4.4591716528E+00  2.1444689335E-01  1.9620858380E-01  6.8146999904E-01
  1.6929765886E+04  4.8187061792E+00  4.4551630779E+00  2.1814726479E-01  1.9936034956E-01  6.8356600698E-01
  1.7026755853E+04  4.8574068580E+00  4.4511809751E+00  2.2188971118E-01  2.0254091297E-01  6.8564374388E-01
  1.7123745819E+04  4.8962128469E+00  4.4472325277E+00  2.2567446573E-01  2.0575031343E-01  6.8770328525E-01
  1.7220735786E+04  4.9353061248E+00  4.4433971688E+00  2.2950176159E-01  2.0898904794E-01  6.8974471032E-01
  1.7317725753E+04  4.9744893469E+00  4.4395866305E+00  2.3337183188E-01  2.1225658043E-01  6.9176810189E-01
  1.7414715719E+04  5.0137701447E+00  4.4358040712E+00  2.3728490962E-01  2.1555291971E-01  6.9377354619E-01
  1.7511705686E+04  5.0533490567E+00  4.4321358948E+00  2.4124490589E-01  2.1888166654E-01  6.9576113263E-01
  1.7608695652E+04  5.0930192114E+00  4.4284909871E+00  2.4527564688E-01  2.2226156974E-01  6.9773095373E-01
  1.7705685619E+04  5.1327803147E+00  4.4248690736E+00  2.4935094716E-01  2.2567080065E-01  6.9968310490E-01
  1.7802675585E+04  5.1728363417E+00  4.4213569492E+00  2.5347104980E-01  2.2910997179E-01  7.0161861123E-01
  1.7899665552E+04  5.2129973684E+00  4.4178719916E+00  2.5763619783E-01  2.3257849287E-01  7.0353882670E-01
  1.7996655518E+04  5.2532506443E+00  4.4144085911E+00  2.6184663427E-01  2.3607629908E-01  7.0544380693E-01
  1.8093645485E+04  5.2937679949E+00  4.4110389179E+00  2.6610260208E-01  2.3960392708E-01  7.0733360212E-01
  1.8190635452E+04  5.3344235184E+00  4.4077084982E+00  2.7040434424E-01  2.4316095375E-01  7.0920826543E-01
  1.8287625418E+04  5.3751725869E+00  4.4043982832E+00  2.7475210367E-01  2.4674720135E-01  7.1106785279E-01
  1.8384615385E+04  5.4161431342E+00  4.4011613210E+00  2.7914612327E-01  2.5036307911E-01  7.1291242284E-01
  1.8481605351E+04  5.4572966696E+00  4.3979803219E+00  2.8358664592E-01  2.5400843482E-01  7.1474203678E-01
  1.8578595318E+04  5.4985450413E+00  4.3948182538E+00  2.8807391447E-01  2.5768292587E-01  7.1655675829E-01
  1.8675585284E+04  5.5399603969E+00  4.3917046368E+00  2.9260817176E-01  2.6138677421E-01  7.1835665338E-01
  1.8772575251E+04  5.5816153528E+00  4.3886682159E+00  2.9719376444E-01  2.6512348465E-01  7.2014179032E-01
  1.8869565217E+04  5.6233664313E+00  4.3856495258E+00  3.0182905142E-01  2.6889096778E-01  7.2191223954E-01
  1.8966555184E+04  5.6652179553E+00  4.3826502373E+00  3.0651221483E-01  2.7268754389E-01  7.2366807346E-01
  1.9063545151E+04  5.7073776343E+00  4.3797538087E+00  3.1124349912E-01  2.7651398109E-01  7.2540936649E-01
  1.9160535117E+04  5.7496347175E+00  4.3768739788E+00  3.1602314871E-01  2.8036941804E-01  7.2713619485E-01
  1.9257525084E+04  5.7919889355E+00  4.3740105690E+00  3.2085140802E-01  2.8425379553E-01  7.2884863654E-01
  1.9354515050E+04  5.8345811277E+00  4.3712195448E+00  3.2572852143E-01  2.8816763985E-01  7.3054677118E-01
  1.9451505017E+04  5.8773474080E+00  4.3684742919E+00  3.3065473332E-01  2.9211064523E-01  7.3223067948E-01
  1.9548494983E+04  5.9202121039E+00  4.3657444047E+00  3.3563028802E-01  2.9608243588E-01  7.3390043278E-01
  1.9645484950E+04  5.9632230051E+00  4.3630486304E+00  3.4065542987E-01  3.0008315381E-01  7.3555609389E-01
  1.9742474916E+04  6.0065015693E+00  4.3604338905E+00  3.4573040316E-01  3.0411328037E-01  7.3719772757E-01
  1.9839464883E+04  6.0498798254E+00  4.3578335203E+00  3.5085545218E-01  3.0817201654E-01  7.3882540091E-01
  1.9936454849E+04  6.0933575138E+00  4.3552473710E+00  3.5603082119E-01  3.1225928611E-01  7.4043918317E-01
  2.0033444816E+04  6.1370940684E+00  4.3527368722E+00  3.6126784713E-01  3.1638426759E-01  7.4203914568E-01
  2.0130434783E+04  6.1809891777E+00  4.3502621797E+00  3.6657729550E-01  3.2055440645E-01  7.4362536179E-01
  2.0227424749E+04  6.2249849975E+00  4.3478007786E+00  3.7193860328E-01  3.2475334121E-01  7.4519790669E-01
  2.0324414716E+04  6.2691220652E+00  4.3453679126E+00  3.7735202345E-01  3.2898118689E-01  7.4675685736E-01
  2.0421404682E+04  6.3135389978E+00  4.3430150582E+00  3.8281780903E-01  3.3323855723E-01  7.4830229247E-01
  2.0518394649E+04  6.3580579331E+00  4.3406746169E+00  3.8833621303E-01  3.3752450248E-01  7.4983429226E-01
  2.0615384615E+04  6.4026786218E+00  4.3383464652E+00  3.9390748848E-01  3.4183893015E-01  7.5135293849E-01
  2.0712374582E+04  6.4475292084E+00  4.3360772992E+00  3.9953188839E-01  3.4618241367E-01  7.5285831430E-01
  2.0809364548E+04  6.4925768303E+00  4.3338541487E+00  4.0520966580E-01  3.5055471239E-01  7.5435050417E-01
  2.0906354515E+04  6.5377275216E+00  4.3316424679E+00  4.1094107372E-01  3.5495524598E-01  7.5582959381E-01
  2.1003344482E+04  6.5829810383E+00  4.3294421448E+00  4.1672636521E-01  3.5938391247E-01  7.5729566966E-01
  2.1100334448E+04  6.6285416703E+00  4.3273252439E+00  4.2256579329E-01  3.6384173385E-01  7.5874881189E-01
  2.1197324415E+04  6.6742279388E+00  4.3252265846E+00  4.2845961102E-01  3.6832763878E-01  7.6018909663E-01
  2.1294314381E+04  6.7200183724E+00  4.3231385169E+00  4.3440807143E-01  3.7284140333E-01  7.6161660152E-01
  2.1391304348E+04  6.7659517275E+00  4.3210743593E+00  4.4041142758E-01  3.7738314005E-01  7.6303140575E-01
  2.1488294314E+04  6.8121791282E+00  4.3190854340E+00  4.4646993252E-01  3.8195362495E-01  7.6443358989E-01
  2.1585284281E+04  6.8585120537E+00  4.3171063751E+00  4.5258383932E-01  3.8655167779E-01  7.6582323589E-01
  2.1682274247E+04  6.9049502691E+00  4.3151370895E+00  4.5875340103E-01  3.9117718099E-01  7.6720042688E-01
  2.1779264214E+04  6.9515796175E+00  4.3132061771E+00  4.6497887072E-01  3.9583053527E-01  7.6856524721E-01
  2.1876254181E+04  6.9984605877E+00  4.3113330296E+00  4.7126050146E-01  4.0051201165E-01  7.6991778228E-01
  2.1973244147E+04  7.0454482309E+00  4.3094689767E+00  4.7759854633E-01  4.0522062254E-01  7.7125811849E-01
  2.2070234114E+04  7.0925423172E+00  4.3076139342E+00  4.8399325839E-01  4.0995624173E-01  7.7258634317E-01
  2.2167224080E+04  7.1398617324E+00  4.3058062922E+00  4.9044489073E-01  4.1471949947E-01  7.7390254451E-01
  2.2264214047E+04  7.1874043513E+00  4.3040445506E+00  4.9695369644E-01  4.1951028253E-01  7.7520681148E-01
  2.2361204013E+04  7.2350548196E+00  4.3022911832E+00  5.0352019604E-01  4.2432792481E-01  7.7649923374E-01
  2.2458193980E+04  7.2828129127E+00  4.3005461140E+00  5.1019614533E-01  4.2920874003E-01  7.7777990117E-01
  2.2555183946E+04  7.3308155958E+00  4.2988522252E+00  5.1693117377E-01  4.3411742568E-01  7.7904889819E-01
  2.2652173913E+04  7.3790279864E+00  4.2971977745E+00  5.2372554563E-01  4.3905364169E-01  7.8030630620E-01
  2.2749163880E+04  7.4273494312E+00  4.2955510252E+00  5.3057952520E-01  4.4401658195E-01  7.8155220755E-01
  2.2846153846E+04  7.4757797102E+00  4.2939119088E+00  5.3749337681E-01  4.4900610233E-01  7.8278668553E-01
  2.2943143813E+04  7.5244579667E+00  4.2923226802E+00  5.4446736480E-01  4.5402303739E-01  7.8400982431E-01
  2.3040133779E+04  7.5733482930E+00  4.2907716434E+00  5.5150175356E-01  4.5906702108E-01  7.8522170881E-01
  2.3137123746E+04  7.6223489060E+00  4.2892276791E+00  5.5859680751E-01  4.6413719753E-01  7.8642242469E-01
  2.3234113712E+04  7.6714595906E+00  4.2876907257E+00  5.6575279109E-01  4.6923341467E-01  7.8761205824E-01
  2.3331103679E+04  7.7208048076E+00  4.2861974588E+00  5.7296996879E-01  4.7435643886E-01  7.8879069635E-01
  2.3428093645E+04  7.7703812709E+00  4.2847461794E+00  5.8024860509E-01  4.7950612442E-01  7.8995842642E-01
  2.3525083612E+04  7.8200692811E+00  4.2833013841E+00  5.8758896456E-01  4.8468144226E-01  7.9111533633E-01
  2.3622073579E+04  7.8698686279E+00  4.2818630174E+00  5.9499131173E-01  4.8988223276E-01  7.9226151434E-01
  2.3719063545E+04  7.9198712508E+00  4.2804573809E+00  6.0245591123E-01  4.9510904702E-01  7.9339704909E-01
  2.3816053512E+04  7.9701420866E+00  4.2791024068E+00  6.0998302767E-01  5.0036225649E-01  7.9452202916E-01
  2.3913043478E+04  8.0205257571E+00  4.2777533660E+00  6.1757292570E-01  5.0564051034E-01  7.9563653879E-01
  2.4010033445E+04  8.0710220563E+00  4.2764102084E+00  6.2522587001E-01  5.1094364182E-01  7.9674065938E-01
  2.4107023411E+04  8.1216715650E+00  4.2750842127E+00  6.3294212532E-01  5.1627181225E-01  7.9783447289E-01
  2.4204013378E+04  8.1726450397E+00  4.2738222819E+00  6.4072195637E-01  5.2162626159E-01  7.9891806180E-01
  2.4301003344E+04  8.2237326641E+00  4.2725657680E+00  6.4856562792E-01  5.2700514162E-01  7.9999150906E-01
  2.4397993311E+04  8.2749342367E+00  4.2713146263E+00  6.5647340478E-01  5.3240827889E-01  8.0105489804E-01
  2.4494983278E+04  8.3262495572E+00  4.2700688127E+00  6.6444555179E-01  5.3783549812E-01  8.0210831244E-01
  2.4591973244E+04  8.3779035292E+00  4.2688886277E+00  6.7248233378E-01  5.4328854623E-01  8.0315183629E-01
  2.4688963211E+04  8.4297034282E+00  4.2677215873E+00  6.8058401566E-01  5.4876564449E-01  8.0418555387E-01
  2.4785953177E+04  8.4816186220E+00  4.2665594399E+00  6.8875086233E-01  5.5426635593E-01  8.0520954965E-01
  2.4882943144E+04  8.5336489144E+00  4.2654021457E+00  6.9698313874E-01  5.5979049909E-01  8.0622390826E-01
  2.4979933110E+04  8.5859289876E+00  4.2642850599E+00  7.0528110985E-01  5.6533909769E-01  8.0722871446E-01
  2.5076923077E+04  8.6384475286E+00  4.2632045729E+00  7.1368573951E-01  5.7093795194E-01  8.0822405302E-01
  2.5173913043E+04  8.6910827213E+00  4.2621285291E+00  7.2216813050E-01  5.7656689926E-01  8.0921000614E-01
  2.5270903010E+04  8.7438343738E+00  4.2610568931E+00  7.3071804542E-01  5.8221899602E-01  8.1018665244E-01
  2.5367892977E+04  8.7967253540E+00  4.2599958557E+00  7.3933575850E-01  5.8789427252E-01  8.1115407058E-01
  2.5464882943E+04  8.8499556220E+00  4.2589989667E+00  7.4802154404E-01  5.9359448660E-01  8.1211233948E-01
  2.5561872910E+04  8.9033038001E+00  4.2580060995E+00  7.5677567639E-01  5.9931734204E-01  8.1306153825E-01
  2.5658862876E+04  8.9567697006E+00  4.2570172225E+00  7.6559842993E-01  6.0506264372E-01  8.1400174621E-01
  2.5755852843E+04  9.0103531368E+00  4.2560323048E+00  7.7449007912E-01  6.1083019500E-01  8.1493304276E-01
  2.5852842809E+04  9.0641880965E+00  4.2550893269E+00  7.8345089844E-01  6.1662121688E-01  8.1585550741E-01
  2.5949832776E+04  9.1182361250E+00  4.2541767835E+00  7.9248116243E-01  6.2243514508E-01  8.1676921970E-01
  2.6046822742E+04  9.1724029947E+00  4.2532678391E+00  8.0158114568E-01  6.2827079502E-01  8.1767425918E-01
  2.6143812709E+04  9.2266885230E+00  4.2523624662E+00  8.1075112283E-01  6.3412796508E-01  8.1857070537E-01
  2.6240802676E+04  9.2810929734E+00  4.2514607717E+00  8.1999136856E-01  6.4000645743E-01  8.1945863769E-01
  2.6337792642E+04  9.3358268158E+00  4.2506258422E+00  8.2930215760E-01  6.4590853362E-01  8.2033813434E-01
  2.6434782609E+04  9.3906804733E+00  4.2497941447E+00  8.3868376473E-01  6.5183158745E-01  8.2120926890E-01
  2.6531772575E+04  9.4456537672E+00  4.2489656550E+00  8.4813646477E-01  6.5777541283E-01  8.2207211645E-01
  2.6628762542E+04  9.5007465196E+00  4.2481403491E+00  8.5766053261E-01  6.6373980239E-01  8.2292675236E-01
  2.6725752508E+04  9.5560239147E+00  4.2473392332E+00  8.6725624315E-01  6.6972539147E-01  8.2377325195E-01
  2.6822742475E+04  9.6115493105E+00  4.2465822288E+00  8.7692387137E-01  6.7573282423E-01  8.2461169050E-01
  2.6919732441E+04  9.6671951747E+00  4.2458280910E+00  8.8666369228E-01  6.8176026262E-01  8.2544214299E-01
  2.7016722408E+04  9.7229613331E+00  4.2450767987E+00  8.9647598094E-01  6.8780749538E-01  8.2626468283E-01
  2.7113712375E+04  9.7788476127E+00  4.2443283308E+00  9.0636101246E-01  6.9387431015E-01  8.2707938316E-01
  2.7210702341E+04  9.8349579637E+00  4.2436188265E+00  9.1631906198E-01  6.9996200464E-01  8.2788624818E-01
  2.7307692308E+04  9.8912603547E+00  4.2429366310E+00  9.2635040471E-01  7.0606994204E-01  8.2868570363E-01
  2.7404682274E+04  9.9476837292E+00  4.2422569633E+00  9.3645541266E-01  7.1219694489E-01  8.2947982616E-01
  2.7501672241E+04  1.0004227918E+01  4.2415798050E+00  9.4663467809E-01  7.1834297929E-01  8.3026946860E-01
  2.7598662207E+04  1.0060892751E+01  4.2409051383E+00  9.5688807174E-01  7.2450759347E-01  8.3105465944E-01
  2.7695652174E+04  1.0117798541E+01  4.2402787302E+00  9.6721586905E-01  7.3069255776E-01  8.3183543055E-01
  2.7792642140E+04  1.0174862115E+01  4.2396684109E+00  9.7761834553E-01  7.3689632847E-01  8.3261181386E-01
  2.7889632107E+04  1.0232047049E+01  4.2390603051E+00  9.8809577670E-01  7.4311809452E-01  8.3338384098E-01
  2.7986622074E+04  1.0289353177E+01  4.2384543972E+00  9.9864843816E-01  7.4935763651E-01  8.3415154325E-01
  2.8083612040E+04  1.0346780336E+01  4.2378506716E+00  1.0092766055E+00  7.5561473423E-01  8.3491495171E-01
  2.8180602007E+04  1.0404446872E+01  4.2372992652E+00  1.0199805545E+00  7.6189142364E-01  8.3567409711E-01
  2.8277591973E+04  1.0462254585E+01  4.2367580590E+00  1.0307605608E+00  7.6818566258E-01  8.3642900992E-01
  2.8374581940E+04  1.0520183895E+01  4.2362187746E+00  1.0416169002E+00  7.7449686308E-01  8.3717972032E-01
  2.8471571906E+04  1.0578234640E+01  4.2356813989E+00  1.0525498484E+00  7.8082480280E-01  8.3792625822E-01
  2.8568561873E+04  1.0636406660E+01  4.2351459184E+00  1.0635596814E+00  7.8716925874E-01  8.3866865326E-01
  2.8665551839E+04  1.0694802436E+01  4.2346618115E+00  1.0746466750E+00  7.9353231026E-01  8.3940693479E-01
  2.8762541806E+04  1.0753336037E+01  4.2341871124E+00  1.0858111051E+00  7.9991185525E-01  8.4014113192E-01
  2.8859531773E+04  1.0811991331E+01  4.2337140642E+00  1.0970532479E+00  8.0630731465E-01  8.4087127348E-01
  2.8956521739E+04  1.0870768161E+01  4.2332426558E+00  1.1083733791E+00  8.1271846390E-01  8.4159738805E-01
  2.9053511706E+04  1.0929666369E+01  4.2327728759E+00  1.1197717751E+00  8.1914507793E-01  8.4231950392E-01
  2.9150501672E+04  1.0988763432E+01  4.2323487332E+00  1.1312487117E+00  8.2558904438E-01  8.4303764918E-01
  2.9247491639E+04  1.1048003487E+01  4.2319380804E+00  1.1428044653E+00  8.3204866536E-01  8.4375185162E-01
  2.9344481605E+04  1.1107365191E+01  4.2315288268E+00  1.1544393120E+00  8.3852314372E-01  8.4446213881E-01
  2.9441471572E+04  1.1166848391E+01  4.2311209630E+00  1.1661535280E+00  8.4501225341E-01  8.4516853806E-01
  2.9538461538E+04  1.1226452934E+01  4.2307144798E+00  1.1779473896E+00  8.5151576801E-01  8.4587107644E-01
  2.9635451505E+04  1.1286227266E+01  4.2303433087E+00  1.1898211731E+00  8.5803513794E-01  8.4656978079E-01
  2.9732441472E+04  1.1346153214E+01  4.2299943763E+00  1.2017751550E+00  8.6456955441E-01  8.4726467847E-01
  2.9829431438E+04  1.1406200628E+01  4.2296466089E+00  1.2138096115E+00  8.7111776482E-01  8.4795579780E-01
  2.9926421405E+04  1.1466369358E+01  4.2292999989E+00  1.2259248192E+00  8.7767954233E-01  8.4864316645E-01
  3.0023411371E+04  1.1526659253E+01  4.2289545387E+00  1.2381445314E+00  8.8426663461E-01  8.4932681180E-01
  3.0120401338E+04  1.1587094269E+01  4.2286296556E+00  1.2505203411E+00  8.9090568999E-01  8.5000676095E-01
  3.0217391304E+04  1.1647693175E+01  4.2283402083E+00  1.2629793655E+00  8.9755979403E-01  8.5068304075E-01
  3.0314381271E+04  1.1708413286E+01  4.2280517083E+00  1.2755218934E+00  9.0422695684E-01  8.5135567774E-01
  3.0411371237E+04  1.1769254455E+01  4.2277641494E+00  1.2881482138E+00  9.1090694640E-01  8.5202469824E-01
  3.0508361204E+04  1.1830216537E+01  4.2274775257E+00  1.3008586154E+00  9.1759953055E-01  8.5269012829E-01
  3.0605351171E+04  1.1891300425E+01  4.2271925498E+00  1.3136533873E+00  9.2430451769E-01  8.5335199366E-01
  3.0702341137E+04  1.1952580354E+01  4.2269603871E+00  1.3265328184E+00  9.3102461092E-01  8.5401031990E-01
  3.0799331104E+04  1.2013981305E+01  4.2267289694E+00  1.3394971980E+00  9.3775667524E-01  8.5466513227E-01
  3.0896321070E+04  1.2075503134E+01  4.2264982919E+00  1.3525468151E+00  9.4450047901E-01  8.5531645582E-01
  3.0993311037E+04  1.2137145698E+01  4.2262683499E+00  1.3656819590E+00  9.5125579059E-01  8.5596431533E-01
  3.1090301003E+04  1.2198908856E+01  4.2260391388E+00  1.3789029190E+00  9.5802237842E-01  8.5660873535E-01
  3.1187290970E+04  1.2260843752E+01  4.2258402124E+00  1.3922099844E+00  9.6480186929E-01  8.5724974020E-01
