#[MATERIAL DEFINITION FOR MC-GPU: interaction mean free path and sampling data from PENELOPE 2006]
#[MATERIAL NAME]
# Marrow_Bone12_24                                              
#[NOMINAL DENSITY (g/cm^3)]
#   1.75686000
#[NUMBER OF DATA VALUES]
#   1495
#[MEAN FREE PATHS (cm) (ie, average distance between interactions)]
#[Energy (eV)     | Rayleigh        | Compton         | Photoelectric   | TOTAL (+pair prod) (cm) | Rayleigh: max cumul prob F^2]
  5.0000000000E+03  6.9460358476E-01  5.4919535099E+00  3.2924016086E-03  3.2749153044E-03  2.5756211723E-01
  5.0969899666E+03  7.0734702845E-01  5.4368473185E+00  3.4679612278E-03  3.4488523969E-03  2.6245426369E-01
  5.1939799331E+03  7.2017497859E-01  5.3840481275E+00  3.6492769271E-03  3.6284315769E-03  2.6730291988E-01
  5.2909698997E+03  7.3308618108E-01  5.3334196815E+00  3.8364232906E-03  3.8137218528E-03  2.7210934486E-01
  5.3879598662E+03  7.4607933869E-01  5.2848356386E+00  4.0294744258E-03  4.0047915913E-03  2.7687471748E-01
  5.4849498328E+03  7.5915311632E-01  5.2381786926E+00  4.2285500037E-03  4.2017539722E-03  2.8160014081E-01
  5.5819397993E+03  7.7230614616E-01  5.1933397873E+00  4.4342320484E-03  4.4051782348E-03  2.8628672193E-01
  5.6789297659E+03  7.8553703270E-01  5.1502174113E+00  4.6460810689E-03  4.6146248237E-03  2.9093555632E-01
  5.7759197324E+03  7.9884435748E-01  5.1087169641E+00  4.8641704455E-03  4.8301606062E-03  2.9554762601E-01
  5.8729096990E+03  8.1222668378E-01  5.0687501861E+00  5.0885731317E-03  5.0518518394E-03  3.0012386947E-01
  5.9698996656E+03  8.2568256320E-01  5.0302346400E+00  5.3193616630E-03  5.2797641769E-03  3.0466522960E-01
  6.0668896321E+03  8.3921064780E-01  4.9930930968E+00  5.5571006812E-03  5.5144476629E-03  3.0917259009E-01
  6.1638795987E+03  8.5280988274E-01  4.9572528765E+00  5.8016313058E-03  5.7557391190E-03  3.1364674015E-01
  6.2608695652E+03  8.6647948427E-01  4.9226455458E+00  6.0537675874E-03  6.0044327379E-03  3.1808846677E-01
  6.3578595318E+03  8.8021866342E-01  4.8892069699E+00  6.3155278210E-03  6.2625051824E-03  3.2249857592E-01
  6.4548494983E+03  8.9403124928E-01  4.8569046425E+00  6.5843552688E-03  6.5274330355E-03  3.2687773267E-01
  6.5518394649E+03  9.0791765033E-01  4.8256874461E+00  6.8616093870E-03  6.8005444654E-03  3.3122651818E-01
  6.6488294314E+03  9.2187230351E-01  4.7954735128E+00  7.1466604826E-03  7.0812114979E-03  3.3554552274E-01
  6.7458193980E+03  9.3589429550E-01  4.7662126654E+00  7.4391402525E-03  7.3690641040E-03  3.3983534452E-01
  6.8428093645E+03  9.4998269005E-01  4.7378577258E+00  7.7391303354E-03  7.6641741937E-03  3.4409658852E-01
  6.9397993311E+03  9.6413653071E-01  4.7103643057E+00  8.0467120618E-03  7.9666131130E-03  3.4832983186E-01
  7.0367892977E+03  9.7835538136E-01  4.6836933948E+00  8.3625262014E-03  8.2770000441E-03  3.5253549554E-01
  7.1337792642E+03  9.9265464811E-01  4.6578868305E+00  8.6870712059E-03  8.5958147948E-03  3.5671396873E-01
  7.2307692308E+03  1.0070181316E+00  4.6328245258E+00  9.0195408972E-03  8.9222565463E-03  3.6086565039E-01
  7.3277591973E+03  1.0214450753E+00  4.6084708870E+00  9.3600174968E-03  9.2563962902E-03  3.6499094792E-01
  7.4247491639E+03  1.0359346768E+00  4.5847923812E+00  9.7085829446E-03  9.5983044526E-03  3.6909027579E-01
  7.5217391304E+03  1.0504960215E+00  4.5618012251E+00  1.0065318903E-02  9.9480519933E-03  3.7316399671E-01
  7.6187290970E+03  1.0651320858E+00  4.5394798060E+00  1.0430306763E-02  1.0305708801E-02  3.7721237500E-01
  7.7157190635E+03  1.0798297074E+00  4.5177439285E+00  1.0803627645E-02  1.0671342342E-02  3.8123567540E-01
  7.8127090301E+03  1.0945879246E+00  4.4965668554E+00  1.1185362406E-02  1.1045020812E-02  3.8523417155E-01
  7.9096989967E+03  1.1094218831E+00  4.4759866513E+00  1.1575591644E-02  1.1426813962E-02  3.8920814519E-01
  8.0066889632E+03  1.1243270445E+00  4.4559600439E+00  1.1974883745E-02  1.1817263921E-02  3.9315786506E-01
  8.1036789298E+03  1.1392914248E+00  4.4364197606E+00  1.2389635946E-02  1.2222582920E-02  3.9708351984E-01
  8.2006688963E+03  1.1543191863E+00  4.4173631245E+00  1.2813534677E-02  1.2636606606E-02  4.0098528605E-01
  8.2976588629E+03  1.1694318589E+00  4.3988451855E+00  1.3246669069E-02  1.3059412287E-02  4.0486334908E-01
  8.3946488294E+03  1.1846026579E+00  4.3807514866E+00  1.3689128040E-02  1.3491069465E-02  4.0871790234E-01
  8.4916387960E+03  1.1998315545E+00  4.3630676467E+00  1.4141000302E-02  1.3931650922E-02  4.1254912978E-01
  8.5886287625E+03  1.2151524767E+00  4.3458853373E+00  1.4602374365E-02  1.4381234793E-02  4.1635715724E-01
  8.6856187291E+03  1.2305301065E+00  4.3290737728E+00  1.5073338533E-02  1.4839887034E-02  4.2014210456E-01
  8.7826086957E+03  1.2459676252E+00  4.3126308893E+00  1.5553980914E-02  1.5307679345E-02  4.2390409991E-01
  8.8795986622E+03  1.2614967373E+00  4.2966339992E+00  1.6044389419E-02  1.5784688506E-02  4.2764328052E-01
  8.9765886288E+03  1.2770807340E+00  4.2809616405E+00  1.6544651764E-02  1.6270977823E-02  4.3135979763E-01
  9.0735785953E+03  1.2927342198E+00  4.2656437841E+00  1.7057526875E-02  1.6769201612E-02  4.3505372150E-01
  9.1705685619E+03  1.3084707272E+00  4.2507015714E+00  1.7581436253E-02  1.7277817398E-02  4.3872510593E-01
  9.2675585284E+03  1.3242599963E+00  4.2360439506E+00  1.8115641764E-02  1.7796088617E-02  4.4237401348E-01
  9.3645484950E+03  1.3401373067E+00  4.2217489857E+00  1.8660234029E-02  1.8324094178E-02  4.4600051492E-01
  9.4615384615E+03  1.3560801477E+00  4.2077475618E+00  1.9215303498E-02  1.8861899617E-02  4.4960468869E-01
  9.5585284281E+03  1.3720847921E+00  4.1940224536E+00  1.9780940454E-02  1.9409573886E-02  4.5318662037E-01
  9.6555183946E+03  1.3881826217E+00  4.1806336533E+00  2.0357235010E-02  1.9967194238E-02  4.5674640218E-01
  9.7525083612E+03  1.4043298021E+00  4.1674733566E+00  2.0944277112E-02  2.0534818450E-02  4.6028412689E-01
  9.8494983278E+03  1.4205714267E+00  4.1546302166E+00  2.1542156547E-02  2.1112526628E-02  4.6379983083E-01
  9.9464882943E+03  1.4368738592E+00  4.1420225232E+00  2.2150962934E-02  2.1700377555E-02  4.6729352987E-01
  1.0043478261E+04  1.4532504134E+00  4.1296705610E+00  2.2773591694E-02  2.2301132754E-02  4.7076524914E-01
  1.0140468227E+04  1.4697091311E+00  4.1175803054E+00  2.3410988922E-02  2.2915675471E-02  4.7421502141E-01
  1.0237458194E+04  1.4862234711E+00  4.1056940654E+00  2.4059874537E-02  2.3540829342E-02  4.7764288663E-01
  1.0334448161E+04  1.5028395566E+00  4.0940899318E+00  2.4720343101E-02  2.4176678607E-02  4.8104889154E-01
  1.0431438127E+04  1.5194989608E+00  4.0826540802E+00  2.5392489043E-02  2.4823274072E-02  4.8443308925E-01
  1.0528428094E+04  1.5362691213E+00  4.0714998279E+00  2.6076406654E-02  2.5480706651E-02  4.8779553588E-01
  1.0625418060E+04  1.5530853453E+00  4.0605070527E+00  2.6772190097E-02  2.6149022808E-02  4.9113625445E-01
  1.0722408027E+04  1.5700016414E+00  4.0497618931E+00  2.7479933400E-02  2.6828308877E-02  4.9445525264E-01
  1.0819397993E+04  1.5869753024E+00  4.0391864030E+00  2.8199730462E-02  2.7518616627E-02  4.9775254567E-01
  1.0916387960E+04  1.6040407484E+00  4.0288311562E+00  2.8931675054E-02  2.8220025164E-02  5.0102815570E-01
  1.1013377926E+04  1.6211722682E+00  4.0186488230E+00  2.9675860820E-02  2.8932590567E-02  5.0428211144E-01
  1.1110367893E+04  1.6383898839E+00  4.0086655240E+00  3.0432381275E-02  2.9656385903E-02  5.0751444782E-01
  1.1207357860E+04  1.6556794836E+00  3.9988537525E+00  3.1203255637E-02  3.0393297264E-02  5.1072520568E-01
  1.1304347826E+04  1.6730522945E+00  3.9892255539E+00  3.1991813966E-02  3.1146456148E-02  5.1391441894E-01
  1.1401337793E+04  1.6904999895E+00  3.9797631641E+00  3.2793280365E-02  3.1911297517E-02  5.1708209752E-01
  1.1498327759E+04  1.7080310262E+00  3.9704742483E+00  3.3607753004E-02  3.2687891840E-02  5.2022825462E-01
  1.1595317726E+04  1.7256366210E+00  3.9613413687E+00  3.4435329948E-02  3.3476301160E-02  5.2335290993E-01
  1.1692307692E+04  1.7433289186E+00  3.9523768683E+00  3.5276109163E-02  3.4276596649E-02  5.2645608934E-01
  1.1789297659E+04  1.7610920015E+00  3.9435548383E+00  3.6130188512E-02  3.5088835407E-02  5.2953782464E-01
  1.1886287625E+04  1.7789485996E+00  3.9349007639E+00  3.6997665755E-02  3.5913092886E-02  5.3259815326E-01
  1.1983277592E+04  1.7968685368E+00  3.9263720458E+00  3.7878638556E-02  3.6749417243E-02  5.3563710869E-01
  1.2080267559E+04  1.8148924785E+00  3.9180152201E+00  3.8773204480E-02  3.7597892593E-02  5.3865470771E-01
  1.2177257525E+04  1.8329684089E+00  3.9097633187E+00  3.9681460991E-02  3.8458553296E-02  5.4165097078E-01
  1.2274247492E+04  1.8511627406E+00  3.9016913169E+00  4.0603505460E-02  3.9331497410E-02  5.4462592433E-01
  1.2371237458E+04  1.8693935702E+00  3.8937007057E+00  4.1539435158E-02  4.0216739705E-02  5.4757960054E-01
  1.2468227425E+04  1.8877613469E+00  3.8859018126E+00  4.2489347265E-02  4.1114398451E-02  5.5051203709E-01
  1.2565217391E+04  1.9061651696E+00  3.8781787922E+00  4.3460289085E-02  4.2030974506E-02  5.5342327978E-01
  1.2662207358E+04  1.9246902371E+00  3.8706214113E+00  4.4449119680E-02  4.2963531638E-02  5.5631339127E-01
  1.2759197324E+04  1.9432716216E+00  3.8631570243E+00  4.5452619435E-02  4.3908981291E-02  5.5918239876E-01
  1.2856187291E+04  1.9619515045E+00  3.8558269355E+00  4.6470891440E-02  4.4867411985E-02  5.6203032722E-01
  1.2953177258E+04  1.9807141463E+00  3.8486120158E+00  4.7504038711E-02  4.5838875119E-02  5.6485720736E-01
  1.3050167224E+04  1.9995472982E+00  3.8414969915E+00  4.8552164196E-02  4.6823422649E-02  5.6766307540E-01
  1.3147157191E+04  2.0184949335E+00  3.8345228977E+00  4.9615370772E-02  4.7821145123E-02  5.7044797288E-01
  1.3244147157E+04  2.0374808679E+00  3.8276125870E+00  5.0693761246E-02  4.8832047636E-02  5.7321194639E-01
  1.3341137124E+04  2.0566158721E+00  3.8208698109E+00  5.1787438356E-02  4.9856269002E-02  5.7595504736E-01
  1.3438127090E+04  2.0757914144E+00  3.8141889274E+00  5.2896504770E-02  5.0893787330E-02  5.7867733189E-01
  1.3535117057E+04  2.0950785350E+00  3.8076338319E+00  5.4021063090E-02  5.1944712847E-02  5.8137886047E-01
  1.3632107023E+04  2.1144474724E+00  3.8011747719E+00  5.5161215848E-02  5.3009079477E-02  5.8405969786E-01
  1.3729096990E+04  2.1338841675E+00  3.7947969132E+00  5.6317361279E-02  5.4087203770E-02  5.8671991289E-01
  1.3826086957E+04  2.1534503000E+00  3.7885524531E+00  5.7489824001E-02  5.5179395116E-02  5.8935957552E-01
  1.3923076923E+04  2.1730571811E+00  3.7823618130E+00  5.8678213154E-02  5.6285178302E-02  5.9197872941E-01
  1.4020066890E+04  2.1928008157E+00  3.7763050991E+00  5.9882631298E-02  5.7404688559E-02  5.9457741310E-01
  1.4117056856E+04  2.2126096307E+00  3.7703195245E+00  6.1103180925E-02  5.8537917367E-02  5.9715567044E-01
  1.4214046823E+04  2.2324995866E+00  3.7644165847E+00  6.2339964465E-02  5.9684930064E-02  5.9971355033E-01
  1.4311036789E+04  2.2525141780E+00  3.7586296787E+00  6.3593084282E-02  6.0845818505E-02  6.0225110654E-01
  1.4408026756E+04  2.2725711974E+00  3.7528906662E+00  6.4862642678E-02  6.2020556581E-02  6.0476839752E-01
  1.4505016722E+04  2.2927710356E+00  3.7472771555E+00  6.6148741890E-02  6.3209289704E-02  6.0726548616E-01
  1.4602006689E+04  2.3130386550E+00  3.7417283649E+00  6.7451484092E-02  6.4411995262E-02  6.0974243964E-01
  1.4698996656E+04  2.3333800400E+00  3.7362474744E+00  6.8770971396E-02  6.5628726271E-02  6.1219932922E-01
  1.4795986622E+04  2.3538621384E+00  3.7308832171E+00  7.0107305853E-02  6.6859599334E-02  6.1463623006E-01
  1.4892976589E+04  2.3743884387E+00  3.7255616350E+00  7.1460589449E-02  6.8104561610E-02  6.1705321778E-01
  1.4989966555E+04  2.3950409676E+00  3.7203416102E+00  7.2830924112E-02  6.9363745445E-02  6.1945035204E-01
  1.5086956522E+04  2.4157864373E+00  3.7151970552E+00  7.4233165653E-02  7.0650525947E-02  6.2182769059E-01
  1.5183946488E+04  2.4365769336E+00  3.7100925132E+00  7.5654861748E-02  7.1953481971E-02  6.2418529587E-01
  1.5280936455E+04  2.4575403811E+00  3.7051179480E+00  7.7094445857E-02  7.3271287361E-02  6.2652323478E-01
  1.5377926421E+04  2.4785527199E+00  3.7001834779E+00  7.8552026894E-02  7.4603847702E-02  6.2884157844E-01
  1.5474916388E+04  2.4996471648E+00  3.6953120439E+00  8.0027713734E-02  7.5951246653E-02  6.3114040201E-01
  1.5571906355E+04  2.5208818159E+00  3.6905429922E+00  8.1521615217E-02  7.7313601396E-02  6.3341978454E-01
  1.5668896321E+04  2.5421633261E+00  3.6858096502E+00  8.3033840145E-02  7.8690841624E-02  6.3567980877E-01
  1.5765886288E+04  2.5635605879E+00  3.6811594634E+00  8.4564497281E-02  8.0083097478E-02  6.3792056096E-01
  1.5862876254E+04  2.5850657998E+00  3.6765853502E+00  8.6113695356E-02  8.1490403515E-02  6.4014213063E-01
  1.5959866221E+04  2.6066186768E+00  3.6720447512E+00  8.7681543059E-02  8.2912721319E-02  6.4234460229E-01
  1.6056856187E+04  2.6283146002E+00  3.6676026593E+00  8.9268149048E-02  8.4350221325E-02  6.4452804964E-01
  1.6153846154E+04  2.6500924837E+00  3.6632154801E+00  9.0873621941E-02  8.5802861557E-02  6.4669254914E-01
  1.6250836120E+04  2.6719188290E+00  3.6588597643E+00  9.2498070322E-02  8.7270632263E-02  6.4883818112E-01
  1.6347826087E+04  2.6939091046E+00  3.6546132969E+00  9.4141602739E-02  8.8753739815E-02  6.5096502962E-01
  1.6444816054E+04  2.7159616777E+00  3.6504055428E+00  9.5804327705E-02  9.0252074619E-02  6.5307318226E-01
  1.6541806020E+04  2.7380646924E+00  3.6462281383E+00  9.7486353697E-02  9.1765652812E-02  6.5516273000E-01
  1.6638795987E+04  2.7603436742E+00  3.6421646507E+00  9.9187789157E-02  9.3294705220E-02  6.5723376702E-01
  1.6735785953E+04  2.7826728637E+00  3.6381292703E+00  1.0090874249E-01  9.4839072231E-02  6.5928639051E-01
  1.6832775920E+04  2.8050608979E+00  3.6341275147E+00  1.0264932208E-01  9.6398798695E-02  6.6132069985E-01
  1.6929765886E+04  2.8276175648E+00  3.6302314808E+00  1.0440963625E-01  9.7974099663E-02  6.6333678138E-01
  1.7026755853E+04  2.8502252074E+00  3.6263618446E+00  1.0618979331E-01  9.9564813572E-02  6.6533472266E-01
  1.7123745819E+04  2.8728936190E+00  3.6225248463E+00  1.0798990153E-01  1.0117098549E-01  6.6731461764E-01
  1.7220735786E+04  2.8957297272E+00  3.6187899202E+00  1.0981006915E-01  1.0279283436E-01  6.6927656335E-01
  1.7317725753E+04  2.9186175703E+00  3.6150797893E+00  1.1165040437E-01  1.0443018673E-01  6.7122065970E-01
  1.7414715719E+04  2.9415616016E+00  3.6113971668E+00  1.1351101536E-01  1.0608307604E-01  6.7314700936E-01
  1.7511705686E+04  2.9646788214E+00  3.6078173688E+00  1.1539376455E-01  1.0775327859E-01  6.7505571757E-01
  1.7608695652E+04  2.9878485268E+00  3.6042608623E+00  1.1731001156E-01  1.0945038378E-01  6.7694689202E-01
  1.7705685619E+04  3.0110705470E+00  3.6007273687E+00  1.1924726269E-01  1.1116340499E-01  6.7882064270E-01
  1.7802675585E+04  3.0344632546E+00  3.5972923651E+00  1.2120563077E-01  1.1289260395E-01  6.8067825070E-01
  1.7899665552E+04  3.0579164222E+00  3.5938839025E+00  1.2318522862E-01  1.1463779005E-01  6.8252141407E-01
  1.7996655518E+04  3.0814226496E+00  3.5904970624E+00  1.2518616903E-01  1.1639897022E-01  6.8435019435E-01
  1.8093645485E+04  3.1050812226E+00  3.5871944654E+00  1.2720856479E-01  1.1817637693E-01  6.8616464484E-01
  1.8190635452E+04  3.1288193820E+00  3.5839287593E+00  1.2925252864E-01  1.1996988294E-01  6.8796482125E-01
  1.8287625418E+04  3.1526113380E+00  3.5806833687E+00  1.3131817334E-01  1.2177945286E-01  6.8975078149E-01
  1.8384615385E+04  3.1765306911E+00  3.5775042171E+00  1.3340561161E-01  1.2360527078E-01  6.9152258568E-01
  1.8481605351E+04  3.2005552884E+00  3.5743762723E+00  1.3551495613E-01  1.2544731108E-01  6.9328029598E-01
  1.8578595318E+04  3.2246344113E+00  3.5712674132E+00  1.3764631961E-01  1.2730547688E-01  6.9502397651E-01
  1.8675585284E+04  3.2488093805E+00  3.5682031283E+00  1.3979981469E-01  1.2917988187E-01  6.9675369329E-01
  1.8772575251E+04  3.2731217793E+00  3.5652082212E+00  1.4197764271E-01  1.3107242622E-01  6.9846951412E-01
  1.8869565217E+04  3.2974894243E+00  3.5622312421E+00  1.4417895651E-01  1.3298210324E-01  7.0017150850E-01
  1.8966555184E+04  3.3219147771E+00  3.5592736012E+00  1.4640281972E-01  1.3490803493E-01  7.0185974757E-01
  1.9063545151E+04  3.3465162591E+00  3.5564072617E+00  1.4864934578E-01  1.3685053751E-01  7.0353430398E-01
  1.9160535117E+04  3.3711736998E+00  3.5535577591E+00  1.5091864810E-01  1.3880932221E-01  7.0519525187E-01
  1.9257525084E+04  3.3958869424E+00  3.5507249101E+00  1.5321084009E-01  1.4078439787E-01  7.0684266673E-01
  1.9354515050E+04  3.4207359119E+00  3.5479568656E+00  1.5552603513E-01  1.4277599003E-01  7.0847662537E-01
  1.9451505017E+04  3.4456843407E+00  3.5452306674E+00  1.5786434661E-01  1.4478401628E-01  7.1009720538E-01
  1.9548494983E+04  3.4706892781E+00  3.5425201082E+00  1.6022588786E-01  1.4680836806E-01  7.1170447563E-01
  1.9645484950E+04  3.4957777136E+00  3.5398412668E+00  1.6261077224E-01  1.4884912814E-01  7.1329849696E-01
  1.9742474916E+04  3.5210182427E+00  3.5372344170E+00  1.6501911306E-01  1.5090650463E-01  7.1487933180E-01
  1.9839464883E+04  3.5463159789E+00  3.5346422483E+00  1.6745102362E-01  1.5298023287E-01  7.1644704446E-01
  1.9936454849E+04  3.5716707712E+00  3.5320646070E+00  1.6990661723E-01  1.5507031478E-01  7.1800170111E-01
  2.0033444816E+04  3.5971723328E+00  3.5295541394E+00  1.7239159400E-01  1.5718167197E-01  7.1954336962E-01
  2.0130434783E+04  3.6227642027E+00  3.5270766392E+00  1.7491136318E-01  1.5931850735E-01  7.2107211952E-01
  2.0227424749E+04  3.6484138241E+00  3.5246127736E+00  1.7745555684E-01  1.6147198875E-01  7.2258802189E-01
  2.0324414716E+04  3.6741440553E+00  3.5221755735E+00  1.8002429252E-01  1.6364218931E-01  7.2409114928E-01
  2.0421404682E+04  3.7000330651E+00  3.5198090906E+00  1.8261768776E-01  1.6582936653E-01  7.2558157565E-01
  2.0518394649E+04  3.7259805324E+00  3.5174553993E+00  1.8523586010E-01  1.6803320006E-01  7.2705937625E-01
  2.0615384615E+04  3.7519863117E+00  3.5151143704E+00  1.8787892707E-01  1.7025368598E-01  7.2852462758E-01
  2.0712374582E+04  3.7781229785E+00  3.5128259322E+00  1.9054700619E-01  1.7249106739E-01  7.2997740731E-01
  2.0809364548E+04  3.8043719083E+00  3.5105789514E+00  1.9324021500E-01  1.7474528544E-01  7.3141779419E-01
  2.0906354515E+04  3.8306798744E+00  3.5083438464E+00  1.9595867101E-01  1.7701615477E-01  7.3284586800E-01
  2.1003344482E+04  3.8570467347E+00  3.5061204999E+00  1.9870249174E-01  1.7930366737E-01  7.3426170906E-01
  2.1100334448E+04  3.8835886762E+00  3.5039704820E+00  2.0147179469E-01  1.8160823419E-01  7.3566539230E-01
  2.1197324415E+04  3.9102024697E+00  3.5018380475E+00  2.0426669738E-01  1.8392948584E-01  7.3705698947E-01
  2.1294314381E+04  3.9368758998E+00  3.4997166368E+00  2.0708731731E-01  1.8626736836E-01  7.3843657365E-01
  2.1391304348E+04  3.9636310981E+00  3.4976176024E+00  2.0993377198E-01  1.8862195340E-01  7.3980421914E-01
  2.1488294314E+04  3.9905543652E+00  3.4955847393E+00  2.1280617888E-01  1.9099356124E-01  7.4116000141E-01
  2.1585284281E+04  4.0175380271E+00  3.4935622047E+00  2.1570465551E-01  1.9338177929E-01  7.4250399699E-01
  2.1682274247E+04  4.0445819471E+00  3.4915499001E+00  2.1862931935E-01  1.9578659251E-01  7.4383628344E-01
  2.1779264214E+04  4.0717353482E+00  3.4895722035E+00  2.2158028790E-01  1.9820818070E-01  7.4515693925E-01
  2.1876254181E+04  4.0990329074E+00  3.4876456279E+00  2.2455767862E-01  2.0064667506E-01  7.4646604378E-01
  2.1973244147E+04  4.1263915010E+00  3.4857286316E+00  2.2756160900E-01  2.0310173282E-01  7.4776367723E-01
  2.2070234114E+04  4.1538109951E+00  3.4838211251E+00  2.3059219651E-01  2.0557333496E-01  7.4904992051E-01
  2.2167224080E+04  4.1813598336E+00  3.4819558070E+00  2.3364955861E-01  2.0806174820E-01  7.5032485523E-01
  2.2264214047E+04  4.2090367835E+00  3.4801313700E+00  2.3673381277E-01  2.1056695848E-01  7.5158856363E-01
  2.2361204013E+04  4.2367754281E+00  3.4783158133E+00  2.3984520658E-01  2.1308877312E-01  7.5284112851E-01
  2.2458193980E+04  4.2645756367E+00  3.4765090555E+00  2.4300891427E-01  2.1564690045E-01  7.5408263281E-01
  2.2555183946E+04  4.2925165732E+00  3.4747475886E+00  2.4620041953E-01  2.1822217272E-01  7.5531315491E-01
  2.2652173913E+04  4.3205780662E+00  3.4730213880E+00  2.4941984510E-01  2.2081449013E-01  7.5653277085E-01
  2.2749163880E+04  4.3487019353E+00  3.4713034148E+00  2.5266731378E-01  2.2342357518E-01  7.5774155748E-01
  2.2846153846E+04  4.3768880523E+00  3.4695935949E+00  2.5594294834E-01  2.2604940147E-01  7.5893959238E-01
  2.2943143813E+04  4.4052171531E+00  3.4679278530E+00  2.5924687156E-01  2.2869231595E-01  7.6012695377E-01
  2.3040133779E+04  4.4336683935E+00  3.4662962146E+00  2.6257920626E-01  2.3135220764E-01  7.6130372050E-01
  2.3137123746E+04  4.4621827119E+00  3.4646721933E+00  2.6594007523E-01  2.3402877786E-01  7.6246997199E-01
  2.3234113712E+04  4.4907599828E+00  3.4630557217E+00  2.6932960130E-01  2.3672199619E-01  7.6362578813E-01
  2.3331103679E+04  4.5194727001E+00  3.4614779505E+00  2.7274790730E-01  2.3943218426E-01  7.6477124926E-01
  2.3428093645E+04  4.5483189414E+00  3.4599374114E+00  2.7619511605E-01  2.4215931425E-01  7.6590643615E-01
  2.3525083612E+04  4.5772289831E+00  3.4584039183E+00  2.7967135040E-01  2.4490301870E-01  7.6703142988E-01
  2.3622073579E+04  4.6062027024E+00  3.4568774099E+00  2.8317673320E-01  2.4766326322E-01  7.6814631185E-01
  2.3719063545E+04  4.6352938538E+00  3.4553802015E+00  2.8671138731E-01  2.5044028715E-01  7.6925116369E-01
  2.3816053512E+04  4.6645403963E+00  3.4539274944E+00  2.9027543560E-01  2.5323426098E-01  7.7034606701E-01
  2.3913043478E+04  4.6938514822E+00  3.4524812985E+00  2.9386900096E-01  2.5604469051E-01  7.7143109981E-01
  2.4010033445E+04  4.7232269911E+00  3.4510415582E+00  2.9749220626E-01  2.5887153746E-01  7.7250633790E-01
  2.4107023411E+04  4.7526907386E+00  3.4496178269E+00  3.0114517439E-01  2.6171489037E-01  7.7357185754E-01
  2.4204013378E+04  4.7823429272E+00  3.4482498662E+00  3.0482802827E-01  2.6457525613E-01  7.7462773533E-01
  2.4301003344E+04  4.8120604224E+00  3.4468879154E+00  3.0854089080E-01  2.6745194443E-01  7.7567404822E-01
  2.4397993311E+04  4.8418431066E+00  3.4455319243E+00  3.1228388490E-01  2.7034491322E-01  7.7671087345E-01
  2.4494983278E+04  4.8716908626E+00  3.4441818434E+00  3.1605713350E-01  2.7325411936E-01  7.7773828850E-01
  2.4591973244E+04  4.9017361575E+00  3.4428887536E+00  3.1986075953E-01  2.7618026860E-01  7.7875637105E-01
  2.4688963211E+04  4.9318654693E+00  3.4416081622E+00  3.2369488593E-01  2.7912269341E-01  7.7976519894E-01
  2.4785953177E+04  4.9620607560E+00  3.4403330653E+00  3.2755963567E-01  2.8208124778E-01  7.8076485013E-01
  2.4882943144E+04  4.9923219031E+00  3.4390634180E+00  3.3145513169E-01  2.8505588489E-01  7.8175540266E-01
  2.4979933110E+04  5.0227283726E+00  3.4378291410E+00  3.3538149697E-01  2.8804702899E-01  7.8273693462E-01
  2.5076923077E+04  5.0532734830E+00  3.4366271589E+00  3.3935893783E-01  2.9106938278E-01  7.8370952408E-01
  2.5173913043E+04  5.0838853625E+00  3.4354302346E+00  3.4337318289E-01  2.9411179530E-01  7.8467324700E-01
  2.5270903010E+04  5.1145638991E+00  3.4342383274E+00  3.4741917203E-01  2.9717038941E-01  7.8562817651E-01
  2.5367892977E+04  5.1453224236E+00  3.4330566668E+00  3.5149703268E-01  3.0024519954E-01  7.8657438577E-01
  2.5464882943E+04  5.1762775003E+00  3.4319305638E+00  3.5560689227E-01  3.0333693180E-01  7.8751194804E-01
  2.5561872910E+04  5.2073000686E+00  3.4308091090E+00  3.5974887827E-01  3.0644471671E-01  7.8844093673E-01
  2.5658862876E+04  5.2383900187E+00  3.4296922658E+00  3.6392311815E-01  3.0956850003E-01  7.8936142533E-01
  2.5755852843E+04  5.2695472415E+00  3.4285799977E+00  3.6812973940E-01  3.1270822652E-01  7.9027348734E-01
  2.5852842809E+04  5.3008482639E+00  3.4275044423E+00  3.7236886954E-01  3.1586438529E-01  7.9117719630E-01
  2.5949832776E+04  5.3322711120E+00  3.4264558437E+00  3.7664063609E-01  3.1903678031E-01  7.9207262571E-01
  2.6046822742E+04  5.3637619619E+00  3.4254114759E+00  3.8094516661E-01  3.2222497587E-01  7.9295984902E-01
  2.6143812709E+04  5.3953207066E+00  3.4243713064E+00  3.8528258865E-01  3.2542891320E-01  7.9383893960E-01
  2.6240802676E+04  5.4269474879E+00  3.4233354164E+00  3.8965302981E-01  3.2864853450E-01  7.9470997070E-01
  2.6337792642E+04  5.4587595696E+00  3.4223571929E+00  3.9405661767E-01  3.3188471539E-01  7.9557301456E-01
  2.6434782609E+04  5.4906401673E+00  3.4213828431E+00  3.9849347987E-01  3.3513648456E-01  7.9642813973E-01
  2.6531772575E+04  5.5225891763E+00  3.4204123375E+00  4.0296374403E-01  3.3840377983E-01  7.9727541592E-01
  2.6628762542E+04  5.5546064925E+00  3.4194456471E+00  4.0746753780E-01  3.4168653805E-01  7.9811491298E-01
  2.6725752508E+04  5.5867273301E+00  3.4185005442E+00  4.1200498886E-01  3.4498501111E-01  7.9894670065E-01
  2.6822742475E+04  5.6189859116E+00  3.4175938770E+00  4.1657622488E-01  3.4829945507E-01  7.9977084859E-01
  2.6919732441E+04  5.6513133148E+00  3.4166907216E+00  4.2118137358E-01  3.5162919556E-01  8.0058742617E-01
  2.7016722408E+04  5.6837094378E+00  3.4157910517E+00  4.2582056267E-01  3.5497416615E-01  8.0139650145E-01
  2.7113712375E+04  5.7161741792E+00  3.4148948415E+00  4.3049391990E-01  3.5833429952E-01  8.0219814225E-01
  2.7210702341E+04  5.7487615462E+00  3.4140326734E+00  4.3520157300E-01  3.6171008520E-01  8.0299232869E-01
  2.7307692308E+04  5.7814548768E+00  3.4131946670E+00  4.3994364976E-01  3.6510129995E-01  8.0377957722E-01
  2.7404682274E+04  5.8142172335E+00  3.4123598364E+00  4.4472032082E-01  3.6850752801E-01  8.0456250553E-01
  2.7501672241E+04  5.8470485168E+00  3.4115281582E+00  4.4953185431E-01  3.7192879470E-01  8.0534217423E-01
  2.7598662207E+04  5.8799486280E+00  3.4106996096E+00  4.5437819886E-01  3.7536490526E-01  8.0611859582E-01
  2.7695652174E+04  5.9129769407E+00  3.4099129244E+00  4.5925948236E-01  3.7881650989E-01  8.0689178583E-01
  2.7792642140E+04  5.9460923784E+00  3.4091408560E+00  4.6417583267E-01  3.8228305608E-01  8.0766176003E-01
  2.7889632107E+04  5.9792769445E+00  3.4083716513E+00  4.6912737771E-01  3.8576425530E-01  8.0842853414E-01
  2.7986622074E+04  6.0125305423E+00  3.4076052895E+00  4.7411424539E-01  3.8926003320E-01  8.0919212377E-01
  2.8083612040E+04  6.0458530754E+00  3.4068417505E+00  4.7913656364E-01  3.9277031466E-01  8.0995254447E-01
  2.8180602007E+04  6.0792989494E+00  3.4061234686E+00  4.8419446041E-01  3.9629582999E-01  8.1070981173E-01
  2.8277591973E+04  6.1128229783E+00  3.4054147750E+00  4.8928806368E-01  3.9983585449E-01  8.1146394093E-01
  2.8374581940E+04  6.1464161362E+00  3.4047086548E+00  4.9441750142E-01  4.0339018030E-01  8.1221494740E-01
  2.8471571906E+04  6.1800783287E+00  3.4040050897E+00  4.9958290163E-01  4.0695872944E-01  8.1296284637E-01
  2.8568561873E+04  6.2138094617E+00  3.4033040620E+00  5.0478439233E-01  4.1054142317E-01  8.1370765303E-01
  2.8665551839E+04  6.2476519729E+00  3.4026474508E+00  5.1002210154E-01  4.1413898949E-01  8.1444938245E-01
  2.8762541806E+04  6.2815702237E+00  3.4019997162E+00  5.1529615732E-01  4.1775069230E-01  8.1518804966E-01
  2.8859531773E+04  6.3155575022E+00  3.4013542849E+00  5.2060668772E-01  4.2137632664E-01  8.1592366959E-01
  2.8956521739E+04  6.3496137161E+00  3.4007111408E+00  5.2595382082E-01  4.2501581113E-01  8.1665625711E-01
  2.9053511706E+04  6.3837387738E+00  3.4000702684E+00  5.3133768473E-01  4.2866906362E-01  8.1738582701E-01
  2.9150501672E+04  6.4179597224E+00  3.3994689189E+00  5.3675840754E-01  4.3233672719E-01  8.1811239401E-01
  2.9247491639E+04  6.4522569939E+00  3.3988798640E+00  5.4221611738E-01  4.3601821539E-01  8.1883597273E-01
  2.9344481605E+04  6.4866230904E+00  3.3982928608E+00  5.4771094239E-01  4.3971324835E-01  8.1955657776E-01
  2.9441471572E+04  6.5210579216E+00  3.3977078955E+00  5.5324301074E-01  4.4342174146E-01  8.2027422357E-01
  2.9538461538E+04  6.5555613979E+00  3.3971249543E+00  5.5881245058E-01  4.4714360944E-01  8.2098892459E-01
  2.9635451505E+04  6.5901455864E+00  3.3965727597E+00  5.6441939011E-01  4.5087932960E-01  8.2170069515E-01
  2.9732441472E+04  6.6248058891E+00  3.3960402316E+00  5.7006395754E-01  4.5462862266E-01  8.2240954954E-01
  2.9829431438E+04  6.6595347129E+00  3.3955095209E+00  5.7574628107E-01  4.5839105776E-01  8.2311550194E-01
  2.9926421405E+04  6.6943319698E+00  3.3949806156E+00  5.8146648894E-01  4.6216654734E-01  8.2381856647E-01
  3.0023411371E+04  6.7291975722E+00  3.3944535036E+00  5.8723605208E-01  4.6596214475E-01  8.2451875720E-01
  3.0120401338E+04  6.7641354514E+00  3.3939446328E+00  5.9307988845E-01  4.6979357785E-01  8.2521608808E-01
  3.0217391304E+04  6.7991486739E+00  3.3934665769E+00  5.9896277792E-01  4.7363869685E-01  8.2591057304E-01
  3.0314381271E+04  6.8342300608E+00  3.3929901201E+00  6.0488485456E-01  4.7749682609E-01  8.2660222590E-01
  3.0411371237E+04  6.8693795260E+00  3.3925152518E+00  6.1084625246E-01  4.8136787362E-01  8.2729106042E-01
  3.0508361204E+04  6.9045969839E+00  3.3920419617E+00  6.1684710574E-01  4.8525174684E-01  8.2797709029E-01
  3.0605351171E+04  6.9398826062E+00  3.3915708489E+00  6.2288754854E-01  4.8914836652E-01  8.2866032913E-01
  3.0702341137E+04  6.9752546933E+00  3.3911452742E+00  6.2896771504E-01  4.9305864821E-01  8.2934079049E-01
  3.0799331104E+04  7.0106946507E+00  3.3907210951E+00  6.3508773943E-01  4.9698150329E-01  8.3001848785E-01
  3.0896321070E+04  7.0462023940E+00  3.3902983024E+00  6.4124775593E-01  5.0091683716E-01  8.3069343461E-01
  3.0993311037E+04  7.0817778395E+00  3.3898768873E+00  6.4744789880E-01  5.0486455464E-01  8.3136564410E-01
  3.1090301003E+04  7.1174209040E+00  3.3894568411E+00  6.5368830230E-01  5.0882456000E-01  8.3203512960E-01
  3.1187290970E+04  7.1531483043E+00  3.3890632318E+00  6.5996910075E-01  5.1279741742E-01  8.3270190430E-01
