#[MATERIAL DEFINITION FOR MC-GPU: interaction mean free path and sampling data from PENELOPE 2006]
#[MATERIAL NAME]
# Marrow_Bone14_26                                              
#[NOMINAL DENSITY (g/cm^3)]
#   1.87534000
#[NUMBER OF DATA VALUES]
#   1495
#[MEAN FREE PATHS (cm) (ie, average distance between interactions)]
#[Energy (eV)     | Rayleigh        | Compton         | Photoelectric   | TOTAL (+pair prod) (cm) | Rayleigh: max cumul prob F^2]
  5.0000000000E+03  6.2407927331E-01  5.2912655697E+00  2.8701602571E-03  2.8554789119E-03  2.5484197883E-01
  5.0969899666E+03  6.3542333582E-01  5.2364823150E+00  3.0229301270E-03  3.0068894814E-03  2.5973342694E-01
  5.1939799331E+03  6.4684198800E-01  5.1839997297E+00  3.1806962642E-03  3.1632011377E-03  2.6458260769E-01
  5.2909698997E+03  6.5833419442E-01  5.1336815961E+00  3.3435230812E-03  3.3244736673E-03  2.6939068056E-01
  5.3879598662E+03  6.6989887921E-01  5.0854016449E+00  3.5114745770E-03  3.4907663079E-03  2.7415872661E-01
  5.4849498328E+03  6.8153493070E-01  5.0390426704E+00  3.6846539062E-03  3.6621768341E-03  2.7888775508E-01
  5.5819397993E+03  6.9324120585E-01  4.9944957396E+00  3.8635615395E-03  3.8391951318E-03  2.8357878477E-01
  5.6789297659E+03  7.0501653451E-01  4.9516594817E+00  4.0478200004E-03  4.0214436676E-03  2.8823282755E-01
  5.7759197324E+03  7.1685972355E-01  4.9104394502E+00  4.2374926410E-03  4.2089804019E-03  2.9285078503E-01
  5.8729096990E+03  7.2876956087E-01  4.8707475489E+00  4.4326424430E-03  4.4018627750E-03  2.9743351967E-01
  5.9698996656E+03  7.4074482099E-01  4.8325015116E+00  4.6333320256E-03  4.6001477137E-03  3.0198190241E-01
  6.0668896321E+03  7.5278435866E-01  4.7956243049E+00  4.8400451285E-03  4.8043069136E-03  3.0649674868E-01
  6.1638795987E+03  7.6488726966E-01  4.7600434995E+00  5.0526462773E-03  5.0142013406E-03  3.1097878356E-01
  6.2608695652E+03  7.7705287237E-01  4.7256909557E+00  5.2718577020E-03  5.2305364643E-03  3.1542873319E-01
  6.3578595318E+03  7.8928047714E-01  4.6925028197E+00  5.4994575855E-03  5.4550553356E-03  3.1984734497E-01
  6.4548494983E+03  8.0157361647E-01  4.6604464289E+00  5.7331891466E-03  5.6855296388E-03  3.2423523050E-01
  6.5518394649E+03  8.1393270001E-01  4.6294708841E+00  5.9742491849E-03  5.9231298415E-03  3.2859292178E-01
  6.6488294314E+03  8.2635267267E-01  4.5994950098E+00  6.2220810175E-03  6.1673009188E-03  3.3292096208E-01
  6.7458193980E+03  8.3883272825E-01  4.5704688542E+00  6.4763585916E-03  6.4177155582E-03  3.3721990461E-01
  6.8428093645E+03  8.5137203826E-01  4.5423454464E+00  6.7371524678E-03  6.6744362845E-03  3.4149031120E-01
  6.9397993311E+03  8.6396975424E-01  4.5150805863E+00  7.0045329385E-03  6.9375251453E-03  3.4573271816E-01
  7.0367892977E+03  8.7662550324E-01  4.4886354007E+00  7.2790515683E-03  7.2075158705E-03  3.4994751130E-01
  7.1337792642E+03  8.8935345458E-01  4.4630509375E+00  7.5611374116E-03  7.4848221678E-03  3.5413504753E-01
  7.2307692308E+03  9.0213881616E-01  4.4382082671E+00  7.8500972072E-03  7.7687551958E-03  3.5829569486E-01
  7.3277591973E+03  9.1498093612E-01  4.4140719004E+00  8.1460019966E-03  8.0593767373E-03  3.6242983089E-01
  7.4247491639E+03  9.2787911640E-01  4.3906083984E+00  8.4489225759E-03  8.3567480990E-03  3.6653784139E-01
  7.5217391304E+03  9.4084176029E-01  4.3678296156E+00  8.7589295004E-03  8.6609310565E-03  3.7062006316E-01
  7.6187290970E+03  9.5387167600E-01  4.3457179735E+00  9.0760930880E-03  8.9719864782E-03  3.7467673917E-01
  7.7157190635E+03  9.6695678924E-01  4.3241899469E+00  9.4004834230E-03  9.2899731573E-03  3.7870811399E-01
  7.8127090301E+03  9.8009624346E-01  4.3032188581E+00  9.7321703600E-03  9.6149505237E-03  3.8271444189E-01
  7.9096989967E+03  9.9330405896E-01  4.2828422862E+00  1.0071223527E-02  9.9469793646E-03  3.8669598587E-01
  8.0066889632E+03  1.0065761102E+00  4.2630172747E+00  1.0418139910E-02  1.0286534822E-02  3.9065299732E-01
  8.1036789298E+03  1.0199013353E+00  4.2436769672E+00  1.0778522749E-02  1.0639064789E-02  3.9458565144E-01
  8.2006688963E+03  1.0332835882E+00  4.2248185579E+00  1.1146839247E-02  1.0999162277E-02  3.9849411266E-01
  8.2976588629E+03  1.0467427059E+00  4.2064965292E+00  1.1523166461E-02  1.1366894747E-02  4.0237855473E-01
  8.3946488294E+03  1.0602539448E+00  4.1885972064E+00  1.1907581265E-02  1.1742322944E-02  4.0623915983E-01
  8.4916387960E+03  1.0738172811E+00  4.1711061839E+00  1.2300160350E-02  1.2125510457E-02  4.1007610174E-01
  8.5886287625E+03  1.0874639345E+00  4.1541143275E+00  1.2700980232E-02  1.2516525502E-02  4.1388949919E-01
  8.6856187291E+03  1.1011613528E+00  4.1374917599E+00  1.3110117248E-02  1.2915425814E-02  4.1767946575E-01
  8.7826086957E+03  1.1149124691E+00  4.1212363207E+00  1.3527647563E-02  1.3322274097E-02  4.2144612365E-01
  8.8795986622E+03  1.1287463973E+00  4.1054246817E+00  1.3953647170E-02  1.3737137435E-02  4.2518960434E-01
  8.9765886288E+03  1.1426293786E+00  4.0899361959E+00  1.4388191894E-02  1.4160071337E-02  4.2891005326E-01
  9.0735785953E+03  1.1565748264E+00  4.0748005325E+00  1.4833687417E-02  1.4593394353E-02  4.3260753874E-01
  9.1705685619E+03  1.1705951367E+00  4.0600386294E+00  1.5288756008E-02  1.5035759256E-02  4.3628211381E-01
  9.2675585284E+03  1.1846625418E+00  4.0455600012E+00  1.5752753124E-02  1.5486522964E-02  4.3993384038E-01
  9.3645484950E+03  1.1988093991E+00  4.0314421047E+00  1.6225757107E-02  1.5945754516E-02  4.4356278870E-01
  9.4615384615E+03  1.2130150511E+00  4.0176162564E+00  1.6707846152E-02  1.6413511471E-02  4.4716903680E-01
  9.5585284281E+03  1.2272760860E+00  4.0040652837E+00  1.7199098301E-02  1.6889854344E-02  4.5075266993E-01
  9.6555183946E+03  1.2416212516E+00  3.9908487367E+00  1.7699591456E-02  1.7374850797E-02  4.5431378008E-01
  9.7525083612E+03  1.2560103810E+00  3.9778594861E+00  1.8209403368E-02  1.7868551778E-02  4.5785246013E-01
  9.8494983278E+03  1.2704847776E+00  3.9651855555E+00  1.8728611651E-02  1.8371027434E-02  4.6136874928E-01
  9.9464882943E+03  1.2850136251E+00  3.9527457431E+00  1.9257293774E-02  1.8882329613E-02  4.6486266727E-01
  1.0043478261E+04  1.2996091175E+00  3.9405601565E+00  1.9797975388E-02  1.9404872550E-02  4.6833424308E-01
  1.0140468227E+04  1.3142785965E+00  3.9286346720E+00  2.0351480957E-02  1.9939428677E-02  4.7178351327E-01
  1.0237458194E+04  1.3289977805E+00  3.9169119464E+00  2.0914947591E-02  2.0483221991E-02  4.7521052162E-01
  1.0334448161E+04  1.3438088367E+00  3.9054694131E+00  2.1488457050E-02  2.1036326354E-02  4.7861531865E-01
  1.0431438127E+04  1.3586583386E+00  3.8941940580E+00  2.2072090974E-02  2.1598786960E-02  4.8199796127E-01
  1.0528428094E+04  1.3736079152E+00  3.8831982129E+00  2.2665930886E-02  2.2170683425E-02  4.8535850949E-01
  1.0625418060E+04  1.3885984402E+00  3.8723626946E+00  2.3270058193E-02  2.2752057269E-02  4.8869699179E-01
  1.0722408027E+04  1.4036792458E+00  3.8617728280E+00  2.3884554187E-02  2.3342984212E-02  4.9201342193E-01
  1.0819397993E+04  1.4188113163E+00  3.8513513098E+00  2.4509500048E-02  2.3943510368E-02  4.9530782116E-01
  1.0916387960E+04  1.4340260740E+00  3.8411481821E+00  2.5144976841E-02  2.4553705295E-02  4.9858021753E-01
  1.1013377926E+04  1.4493000364E+00  3.8311165124E+00  2.5791065520E-02  2.5173618844E-02  5.0183064562E-01
  1.1110367893E+04  1.4646514726E+00  3.8212821101E+00  2.6447846931E-02  2.5803315438E-02  5.0505914614E-01
  1.1207357860E+04  1.4800674928E+00  3.8116176899E+00  2.7117083410E-02  2.6444446639E-02  5.0826576564E-01
  1.1304347826E+04  1.4955583369E+00  3.8021351269E+00  2.7801681619E-02  2.7099753996E-02  5.1145054416E-01
  1.1401337793E+04  1.5111163962E+00  3.7928167898E+00  2.8497470328E-02  2.7765242807E-02  5.1461349858E-01
  1.1498327759E+04  1.5267493807E+00  3.7836702183E+00  2.9204534422E-02  2.8440975452E-02  5.1775464903E-01
  1.1595317726E+04  1.5424492711E+00  3.7746781215E+00  2.9922958699E-02  2.9127007122E-02  5.2087402199E-01
  1.1692307692E+04  1.5582271311E+00  3.7658526514E+00  3.0652827864E-02  2.9823400838E-02  5.2397165006E-01
  1.1789297659E+04  1.5740684504E+00  3.7571681772E+00  3.1394226534E-02  3.0530207610E-02  5.2704757163E-01
  1.1886287625E+04  1.5899939232E+00  3.7486498028E+00  3.2147239240E-02  3.1247494158E-02  5.3010183061E-01
  1.1983277592E+04  1.6059760707E+00  3.7402554686E+00  3.2911950424E-02  3.1975303895E-02  5.3313446718E-01
  1.2080267559E+04  1.6220518957E+00  3.7320310021E+00  3.3688444442E-02  3.2713710983E-02  5.3614550528E-01
  1.2177257525E+04  1.6381740670E+00  3.7239103788E+00  3.4476805563E-02  3.3462747102E-02  5.3913497238E-01
  1.2274247492E+04  1.6544029848E+00  3.7159673896E+00  3.5277117973E-02  3.4222498349E-02  5.4210290184E-01
  1.2371237458E+04  1.6706641669E+00  3.7081050266E+00  3.6089465773E-02  3.4992979742E-02  5.4504933262E-01
  1.2468227425E+04  1.6870489241E+00  3.7004317975E+00  3.6913932980E-02  3.5774294653E-02  5.4797430902E-01
  1.2565217391E+04  1.7034655410E+00  3.6928337219E+00  3.7756680010E-02  3.6572146977E-02  5.5087788334E-01
  1.2662207358E+04  1.7199914079E+00  3.6853989963E+00  3.8614959323E-02  3.7383961793E-02  5.5376012429E-01
  1.2759197324E+04  1.7365675527E+00  3.6780562062E+00  3.9485954988E-02  3.8207032583E-02  5.5662106568E-01
  1.2856187291E+04  1.7532322313E+00  3.6708458518E+00  4.0369756164E-02  3.9041437529E-02  5.5946073912E-01
  1.2953177258E+04  1.7699711645E+00  3.6637491318E+00  4.1266451949E-02  3.9887223224E-02  5.6227918182E-01
  1.3050167224E+04  1.7867732103E+00  3.6567510003E+00  4.2176131376E-02  4.0744436741E-02  5.6507643640E-01
  1.3147157191E+04  1.8036782244E+00  3.6498916632E+00  4.3098883418E-02  4.1613158040E-02  5.6785255067E-01
  1.3244147157E+04  1.8206171621E+00  3.6430954690E+00  4.4034796986E-02  4.2493394386E-02  5.7060757734E-01
  1.3341137124E+04  1.8376903145E+00  3.6364639927E+00  4.4983960931E-02  4.3385266791E-02  5.7334157386E-01
  1.3438127090E+04  1.8547994215E+00  3.6298937666E+00  4.5946464043E-02  4.4288759667E-02  5.7605460222E-01
  1.3535117057E+04  1.8720087377E+00  3.6234472661E+00  4.6922395051E-02  4.5203969721E-02  5.7874672870E-01
  1.3632107023E+04  1.8892913461E+00  3.6170953680E+00  4.7911842626E-02  4.6130928876E-02  5.8141802368E-01
  1.3729096990E+04  1.9066345091E+00  3.6108235205E+00  4.8915137477E-02  4.7069901579E-02  5.8406856153E-01
  1.3826086957E+04  1.9240939598E+00  3.6046826945E+00  4.9932550019E-02  4.8021148119E-02  5.8669841739E-01
  1.3923076923E+04  1.9415895635E+00  3.5985951304E+00  5.0963765030E-02  4.8984280709E-02  5.8930764060E-01
  1.4020066890E+04  1.9592079875E+00  3.5926389773E+00  5.2008871186E-02  4.9959417266E-02  5.9189627565E-01
  1.4117056856E+04  1.9768846224E+00  3.5867529474E+00  5.3067957103E-02  5.0946553871E-02  5.9446437216E-01
  1.4214046823E+04  1.9946338456E+00  3.5809482074E+00  5.4141111340E-02  5.1945749210E-02  5.9701198470E-01
  1.4311036789E+04  2.0124948853E+00  3.5752572891E+00  5.5228422400E-02  5.2957084461E-02  5.9953917257E-01
  1.4408026756E+04  2.0303936010E+00  3.5696137625E+00  5.6329978730E-02  5.3980540918E-02  6.0204599960E-01
  1.4505016722E+04  2.0484204552E+00  3.5640931665E+00  5.7445868722E-02  5.5016245088E-02  6.0453253396E-01
  1.4602006689E+04  2.0665078331E+00  3.5586363072E+00  5.8576180711E-02  5.6064181317E-02  6.0699884796E-01
  1.4698996656E+04  2.0846611054E+00  3.5532462416E+00  5.9721002977E-02  5.7124397946E-02  6.0944501786E-01
  1.4795986622E+04  2.1029405467E+00  3.5479703403E+00  6.0880423748E-02  5.8196997113E-02  6.1187112371E-01
  1.4892976589E+04  2.1212592676E+00  3.5427366677E+00  6.2054531195E-02  5.9281937715E-02  6.1427724593E-01
  1.4989966555E+04  2.1396910586E+00  3.5376024052E+00  6.3243413437E-02  6.0379335179E-02  6.1666344905E-01
  1.5086956522E+04  2.1582059752E+00  3.5325421930E+00  6.4460057772E-02  6.1500944468E-02  6.1902979553E-01
  1.5183946488E+04  2.1767609163E+00  3.5275215762E+00  6.5693575499E-02  6.2636736021E-02  6.2137635241E-01
  1.5280936455E+04  2.1954708831E+00  3.5226278508E+00  6.6942595939E-02  6.3785541988E-02  6.2370319104E-01
  1.5377926421E+04  2.2142243498E+00  3.5177737673E+00  6.8207213289E-02  6.4947286637E-02  6.2601038688E-01
  1.5474916388E+04  2.2330511573E+00  3.5129815603E+00  6.9487521714E-02  6.6122044547E-02  6.2829801935E-01
  1.5571906355E+04  2.2520035042E+00  3.5082893709E+00  7.0783615343E-02  6.7309918598E-02  6.3056617161E-01
  1.5668896321E+04  2.2709975261E+00  3.5036325253E+00  7.2095588275E-02  6.8510853539E-02  6.3281493038E-01
  1.5765886288E+04  2.2900950804E+00  3.4990569909E+00  7.3423534574E-02  6.9724963159E-02  6.3504438581E-01
  1.5862876254E+04  2.3092891623E+00  3.4945558875E+00  7.4767548273E-02  7.0952280701E-02  6.3725463120E-01
  1.5959866221E+04  2.3285256449E+00  3.4900879587E+00  7.6127723371E-02  7.2192777922E-02  6.3944575478E-01
  1.6056856187E+04  2.3478901145E+00  3.4857161316E+00  7.7504153836E-02  7.3446602542E-02  6.4161783392E-01
  1.6153846154E+04  2.3673277584E+00  3.4813981728E+00  7.8896933604E-02  7.4713723402E-02  6.4377094859E-01
  1.6250836120E+04  2.3868085196E+00  3.4771113631E+00  8.0306156578E-02  7.5994136502E-02  6.4590518257E-01
  1.6347826087E+04  2.4064359414E+00  3.4729309634E+00  8.1731916632E-02  7.7288019766E-02  6.4802062325E-01
  1.6444816054E+04  2.4261188877E+00  3.4687887012E+00  8.3174307605E-02  7.8595285236E-02  6.5011736145E-01
  1.6541806020E+04  2.4458467271E+00  3.4646764719E+00  8.4633423308E-02  7.9915950775E-02  6.5219549128E-01
  1.6638795987E+04  2.4657319471E+00  3.4606750754E+00  8.6109357518E-02  8.1250214801E-02  6.5425510992E-01
  1.6735785953E+04  2.4856618509E+00  3.4567015169E+00  8.7602203983E-02  8.2597947441E-02  6.5629631754E-01
  1.6832775920E+04  2.5056441737E+00  3.4527611193E+00  8.9112056420E-02  8.3959190748E-02  6.5831921631E-01
  1.6929765886E+04  2.5257772338E+00  3.4489235406E+00  9.0639008515E-02  8.5334129800E-02  6.6032389508E-01
  1.7026755853E+04  2.5459556661E+00  3.4451121135E+00  9.2183153923E-02  8.6722633249E-02  6.6231044416E-01
  1.7123745819E+04  2.5661882352E+00  3.4413328547E+00  9.3744586271E-02  8.8124743365E-02  6.6427896026E-01
  1.7220735786E+04  2.5865706319E+00  3.4376528038E+00  9.5323399154E-02  8.9540648413E-02  6.6622954306E-01
  1.7317725753E+04  2.6069990804E+00  3.4339973238E+00  9.6919686137E-02  9.0970207219E-02  6.6816229507E-01
  1.7414715719E+04  2.6274775637E+00  3.4303690241E+00  9.8533540756E-02  9.2413452338E-02  6.7007732140E-01
  1.7511705686E+04  2.6481107124E+00  3.4268405764E+00  1.0016657862E-01  9.3871931958E-02  6.7197472971E-01
  1.7608695652E+04  2.6687905843E+00  3.4233352167E+00  1.0182865537E-01  9.5354038999E-02  6.7385462997E-01
  1.7705685619E+04  2.6895170269E+00  3.4198526681E+00  1.0350893043E-01  9.6850176743E-02  6.7571713437E-01
  1.7802675585E+04  2.7103958155E+00  3.4164657214E+00  1.0520750139E-01  9.8360569303E-02  6.7756356292E-01
  1.7899665552E+04  2.7313284524E+00  3.4131049671E+00  1.0692446579E-01  9.9885061639E-02  6.7939566557E-01
  1.7996655518E+04  2.7523083254E+00  3.4097656532E+00  1.0865992118E-01  1.0142366431E-01  6.8121350409E-01
  1.8093645485E+04  2.7734240799E+00  3.4065081464E+00  1.1041396508E-01  1.0297657680E-01  6.8301713169E-01
  1.8190635452E+04  2.7946107532E+00  3.4032867807E+00  1.1218669499E-01  1.0454369729E-01  6.8480660389E-01
  1.8287625418E+04  2.8158453198E+00  3.4000855674E+00  1.1397820840E-01  1.0612500096E-01  6.8658197841E-01
  1.8384615385E+04  2.8371934359E+00  3.3969487576E+00  1.1578860277E-01  1.0772064666E-01  6.8834331508E-01
  1.8481605351E+04  2.8586353387E+00  3.3938618528E+00  1.1761797556E-01  1.0933061777E-01  6.9009067575E-01
  1.8578595318E+04  2.8801257838E+00  3.3907938888E+00  1.1946642420E-01  1.1095483804E-01  6.9182412420E-01
  1.8675585284E+04  2.9017015995E+00  3.3877694130E+00  1.2133404611E-01  1.1259340738E-01  6.9354372603E-01
  1.8772575251E+04  2.9233998475E+00  3.3848123105E+00  1.2322276414E-01  1.1424800023E-01  6.9524954863E-01
  1.8869565217E+04  2.9451472785E+00  3.3818730081E+00  1.2513183674E-01  1.1591774254E-01  6.9694166101E-01
  1.8966555184E+04  2.9669460842E+00  3.3789528573E+00  1.2706044448E-01  1.1760186446E-01  6.9862013381E-01
  1.9063545151E+04  2.9889017163E+00  3.3761211487E+00  1.2900868543E-01  1.1930063515E-01  7.0028503915E-01
  1.9160535117E+04  3.0109071640E+00  3.3733061657E+00  1.3097665768E-01  1.2101381820E-01  7.0193645056E-01
  1.9257525084E+04  3.0329622872E+00  3.3705077255E+00  1.3296445929E-01  1.2274142590E-01  7.0357444294E-01
  1.9354515050E+04  3.0551381921E+00  3.3677721713E+00  1.3497218828E-01  1.2448365149E-01  7.0519909248E-01
  1.9451505017E+04  3.0774026114E+00  3.3650773943E+00  1.3699994270E-01  1.2624043108E-01  7.0681047606E-01
  1.9548494983E+04  3.0997173327E+00  3.3623981609E+00  1.3904782055E-01  1.2801167895E-01  7.0840866204E-01
  1.9645484950E+04  3.1221063445E+00  3.3597499369E+00  1.4111591983E-01  1.2979746906E-01  7.0999371106E-01
  1.9742474916E+04  3.1446306154E+00  3.3571714659E+00  1.4320433853E-01  1.3159798000E-01  7.1156568536E-01
  1.9839464883E+04  3.1672058064E+00  3.3546075957E+00  1.4531317462E-01  1.3341299586E-01  7.1312464903E-01
  1.9936454849E+04  3.1898317829E+00  3.3520581729E+00  1.4744252605E-01  1.3524252315E-01  7.1467066794E-01
  2.0033444816E+04  3.2125882220E+00  3.3495738290E+00  1.4959737301E-01  1.3709089794E-01  7.1620380964E-01
  2.0130434783E+04  3.2354249768E+00  3.3471216544E+00  1.5178244118E-01  1.3896184508E-01  7.1772414325E-01
  2.0227424749E+04  3.2583131317E+00  3.3446830485E+00  1.5398866895E-01  1.4084757840E-01  7.1923173943E-01
  2.0324414716E+04  3.2812729931E+00  3.3422705356E+00  1.5621615798E-01  1.4274816399E-01  7.2072667027E-01
  2.0421404682E+04  3.3043740045E+00  3.3399264651E+00  1.5846500991E-01  1.4466382171E-01  7.2220900921E-01
  2.0518394649E+04  3.3275270401E+00  3.3375951336E+00  1.6073532639E-01  1.4659428944E-01  7.2367883096E-01
  2.0615384615E+04  3.3507319703E+00  3.3352764121E+00  1.6302720907E-01  1.4853956898E-01  7.2513621142E-01
  2.0712374582E+04  3.3740533112E+00  3.3330086749E+00  1.6534075958E-01  1.5049986828E-01  7.2658122766E-01
  2.0809364548E+04  3.3974745048E+00  3.3307812130E+00  1.6767607956E-01  1.5247514331E-01  7.2801395776E-01
  2.0906354515E+04  3.4209482341E+00  3.3285655871E+00  1.7003327064E-01  1.5446524442E-01  7.2943448082E-01
  2.1003344482E+04  3.4444743724E+00  3.3263616800E+00  1.7241243445E-01  1.5647016997E-01  7.3084287646E-01
  2.1100334448E+04  3.4681562693E+00  3.3242286488E+00  1.7481367260E-01  1.5849026819E-01  7.3223921900E-01
  2.1197324415E+04  3.4919020993E+00  3.3221129211E+00  1.7723708672E-01  1.6052523568E-01  7.3362357970E-01
  2.1294314381E+04  3.5157009961E+00  3.3200081894E+00  1.7968277842E-01  1.6257503238E-01  7.3499603108E-01
  2.1391304348E+04  3.5395726580E+00  3.3179253547E+00  1.8215084931E-01  1.6463972321E-01  7.3635664691E-01
  2.1488294314E+04  3.5635938971E+00  3.3159064799E+00  1.8464140100E-01  1.6671958082E-01  7.3770550202E-01
  2.1585284281E+04  3.5876688756E+00  3.3138979171E+00  1.8715453508E-01  1.6881426549E-01  7.3904267231E-01
  2.1682274247E+04  3.6117974716E+00  3.3118995679E+00  1.8969035316E-01  1.7092376966E-01  7.4036823469E-01
  2.1779264214E+04  3.6360235229E+00  3.3099348379E+00  1.9224895683E-01  1.7304824863E-01  7.4168226692E-01
  2.1876254181E+04  3.6603779116E+00  3.3080195781E+00  1.9483044768E-01  1.7518781713E-01  7.4298484766E-01
  2.1973244147E+04  3.6847866070E+00  3.3061138919E+00  1.9743492729E-01  1.7734219358E-01  7.4427605632E-01
  2.2070234114E+04  3.7092494899E+00  3.3042176895E+00  2.0006249725E-01  1.7951136703E-01  7.4555597305E-01
  2.2167224080E+04  3.7338275519E+00  3.3023623569E+00  2.0271325914E-01  1.8169556558E-01  7.4682467866E-01
  2.2264214047E+04  3.7585196931E+00  3.3005466333E+00  2.0538731453E-01  1.8389478248E-01  7.4808225456E-01
  2.2361204013E+04  3.7832667276E+00  3.2987397942E+00  2.0808487816E-01  1.8610886607E-01  7.4932878270E-01
  2.2458193980E+04  3.8080685386E+00  3.2969417579E+00  2.1082784503E-01  1.8835519666E-01  7.5056434516E-01
  2.2555183946E+04  3.8329957118E+00  3.2951875413E+00  2.1359489067E-01  1.9061687171E-01  7.5178901958E-01
  2.2652173913E+04  3.8580302603E+00  3.2934675181E+00  2.1638612126E-01  1.9289381285E-01  7.5300288133E-01
  2.2749163880E+04  3.8831203077E+00  3.2917557359E+00  2.1920164297E-01  1.9518579291E-01  7.5420600657E-01
  2.2846153846E+04  3.9082657398E+00  3.2900521203E+00  2.2204156199E-01  1.9749279486E-01  7.5539847217E-01
  2.2943143813E+04  3.9335385846E+00  3.2883911329E+00  2.2490598449E-01  1.9981511438E-01  7.5658035560E-01
  2.3040133779E+04  3.9589202448E+00  3.2867631991E+00  2.2779501669E-01  2.0215266366E-01  7.5775173497E-01
  2.3137123746E+04  3.9843580287E+00  3.2851429048E+00  2.3070876479E-01  2.0450519757E-01  7.5891268888E-01
  2.3234113712E+04  4.0098518242E+00  3.2835301822E+00  2.3364733499E-01  2.0687269566E-01  7.6006329642E-01
  2.3331103679E+04  4.0354663426E+00  3.2819549039E+00  2.3661083352E-01  2.0925543252E-01  7.6120363714E-01
  2.3428093645E+04  4.0611998665E+00  3.2804156566E+00  2.3959936659E-01  2.1165338993E-01  7.6233379092E-01
  2.3525083612E+04  4.0869901576E+00  3.2788834859E+00  2.4261304045E-01  2.1406626491E-01  7.6345383801E-01
  2.3622073579E+04  4.1128371063E+00  3.2773583303E+00  2.4565196133E-01  2.1649403361E-01  7.6456385892E-01
  2.3719063545E+04  4.1387887224E+00  3.2758615820E+00  2.4871623547E-01  2.1893690173E-01  7.6566393442E-01
  2.3816053512E+04  4.1648789073E+00  3.2744078109E+00  2.5180596913E-01  2.2139501726E-01  7.6675414519E-01
  2.3913043478E+04  4.1910265218E+00  3.2729605895E+00  2.5492126857E-01  2.2386797069E-01  7.6783456846E-01
  2.4010033445E+04  4.2172314585E+00  3.2715198619E+00  2.5806224005E-01  2.2635573485E-01  7.6890527932E-01
  2.4107023411E+04  4.2435149992E+00  3.2700947817E+00  2.6122898985E-01  2.2885838894E-01  7.6996635327E-01
  2.4204013378E+04  4.2699666855E+00  3.2687234556E+00  2.6442162424E-01  2.3137636325E-01  7.7101786618E-01
  2.4301003344E+04  4.2964764824E+00  3.2673581854E+00  2.6764024951E-01  2.3390908343E-01  7.7205989422E-01
  2.4397993311E+04  4.3230442849E+00  3.2659989202E+00  2.7088497195E-01  2.3645651901E-01  7.7309251383E-01
  2.4494983278E+04  4.3496699887E+00  3.2646456099E+00  2.7415589787E-01  2.3901863859E-01  7.7411580169E-01
  2.4591973244E+04  4.3764720295E+00  3.2633471960E+00  2.7745313356E-01  2.4159603968E-01  7.7512983466E-01
  2.4688963211E+04  4.4033489087E+00  3.2620610425E+00  2.8077678533E-01  2.4418816658E-01  7.7613468975E-01
  2.4785953177E+04  4.4302844956E+00  3.2607804356E+00  2.8412695952E-01  2.4679490145E-01  7.7713044407E-01
  2.4882943144E+04  4.4572786878E+00  3.2595053299E+00  2.8750376244E-01  2.4941620972E-01  7.7811717481E-01
  2.4979933110E+04  4.4844025463E+00  3.2582643846E+00  2.9090730041E-01  2.5205245250E-01  7.7909495920E-01
  2.5076923077E+04  4.5116500951E+00  3.2570546494E+00  2.9435518597E-01  2.5471668312E-01  7.8006387443E-01
  2.5173913043E+04  4.5389570611E+00  3.2558500308E+00  2.9783497779E-01  2.5739903935E-01  7.8102399565E-01
  2.5270903010E+04  4.5663233441E+00  3.2546504873E+00  3.0134226416E-01  2.6009608884E-01  7.8197539529E-01
  2.5367892977E+04  4.5937608428E+00  3.2534610261E+00  3.0487715529E-01  2.6280786518E-01  7.8291814574E-01
  2.5464882943E+04  4.6213735964E+00  3.2523250480E+00  3.0843976138E-01  2.6553496540E-01  7.8385231957E-01
  2.5561872910E+04  4.6490464107E+00  3.2511937827E+00  3.1203019268E-01  2.6827666484E-01  7.8477798942E-01
  2.5658862876E+04  4.6767791876E+00  3.2500671930E+00  3.1564855943E-01  2.7103292259E-01  7.8569522799E-01
  2.5755852843E+04  4.7045718296E+00  3.2489452419E+00  3.1929497188E-01  2.7380369687E-01  7.8660410804E-01
  2.5852842809E+04  4.7324924146E+00  3.2478587152E+00  3.2296954032E-01  2.7658940142E-01  7.8750470230E-01
  2.5949832776E+04  4.7605213935E+00  3.2467982627E+00  3.2667237503E-01  2.7938987668E-01  7.8839708349E-01
  2.6046822742E+04  4.7886108839E+00  3.2457421107E+00  3.3040358632E-01  2.8220476237E-01  7.8928132426E-01
  2.6143812709E+04  4.8167607904E+00  3.2446902258E+00  3.3416328450E-01  2.8503401360E-01  7.9015749717E-01
  2.6240802676E+04  4.8449712378E+00  3.2436426839E+00  3.3795157993E-01  2.8787758623E-01  7.9102567465E-01
  2.6337792642E+04  4.8733461130E+00  3.2426506328E+00  3.4176858293E-01  2.9073621527E-01  7.9188592815E-01
  2.6434782609E+04  4.9017819512E+00  3.2416625299E+00  3.4561440388E-01  2.9360909413E-01  7.9273832558E-01
  2.6531772575E+04  4.9302786591E+00  3.2406783453E+00  3.4948915315E-01  2.9649617488E-01  7.9358293590E-01
  2.6628762542E+04  4.9588361438E+00  3.2396980491E+00  3.5339294115E-01  2.9939740876E-01  7.9441982825E-01
  2.6725752508E+04  4.9874854369E+00  3.2387386691E+00  3.5732587826E-01  3.0231300914E-01  7.9524907162E-01
  2.6822742475E+04  5.0162566959E+00  3.2378163461E+00  3.6128807492E-01  3.0524319297E-01  7.9607073493E-01
  2.6919732441E+04  5.0450891805E+00  3.2368976135E+00  3.6527964156E-01  3.0818740267E-01  7.9688488680E-01
  2.7016722408E+04  5.0739827997E+00  3.2359824443E+00  3.6930068864E-01  3.1114558655E-01  7.9769159458E-01
  2.7113712375E+04  5.1029374630E+00  3.2350708121E+00  3.7335132660E-01  3.1411769211E-01  7.9849092537E-01
  2.7210702341E+04  5.1320004313E+00  3.2341920223E+00  3.7743166594E-01  3.1710412879E-01  7.9928285570E-01
  2.7307692308E+04  5.1611571209E+00  3.2333366034E+00  3.8154181714E-01  3.2010471480E-01  8.0006791616E-01
  2.7404682274E+04  5.1903752051E+00  3.2324844424E+00  3.8568192511E-01  3.2311910819E-01  8.0084880821E-01
  2.7501672241E+04  5.2196545951E+00  3.2316355154E+00  3.8985221304E-01  3.2614733227E-01  8.0162662500E-01
  2.7598662207E+04  5.2489952027E+00  3.2307897988E+00  3.9405264760E-01  3.2918922965E-01  8.0240137762E-01
  2.7695652174E+04  5.2784484820E+00  3.2299844136E+00  3.9828333936E-01  3.3224534068E-01  8.0317307913E-01
  2.7792642140E+04  5.3079788304E+00  3.2291932435E+00  4.0254439891E-01  3.3531521156E-01  8.0394174277E-01
  2.7889632107E+04  5.3375706485E+00  3.2284050224E+00  4.0683593685E-01  3.3839860647E-01  8.0470738175E-01
  2.7986622074E+04  5.3672238498E+00  3.2276197291E+00  4.1115806379E-01  3.4149546660E-01  8.0547000922E-01
  2.8083612040E+04  5.3969383482E+00  3.2268373427E+00  4.1551089036E-01  3.4460573237E-01  8.0622963829E-01
  2.8180602007E+04  5.4267606169E+00  3.2260985350E+00  4.1989452720E-01  3.4773000742E-01  8.0698628205E-01
  2.8277591973E+04  5.4566520507E+00  3.2253691146E+00  4.2430908496E-01  3.5086769744E-01  8.0773995352E-01
  2.8374581940E+04  5.4866049355E+00  3.2246423558E+00  4.2875467432E-01  3.5401863343E-01  8.0849066568E-01
  2.8471571906E+04  5.5166191868E+00  3.2239182399E+00  4.3323140595E-01  3.5718275323E-01  8.0923843148E-01
  2.8568561873E+04  5.5466947207E+00  3.2231967484E+00  4.3773939055E-01  3.6035999397E-01  8.0998326382E-01
  2.8665551839E+04  5.5768669397E+00  3.2225180256E+00  4.4227873883E-01  3.6355095408E-01  8.1072517554E-01
  2.8762541806E+04  5.6071061026E+00  3.2218479998E+00  4.4684956150E-01  3.6675503197E-01  8.1146417945E-01
  2.8859531773E+04  5.6374066039E+00  3.2211803682E+00  4.5145196931E-01  3.6997206115E-01  8.1220028833E-01
  2.8956521739E+04  5.6677683614E+00  3.2205151142E+00  4.5608607299E-01  3.7320197630E-01  8.1293351487E-01
  2.9053511706E+04  5.6981912929E+00  3.2198522214E+00  4.6075198331E-01  3.7644471142E-01  8.1366387177E-01
  2.9150501672E+04  5.7286969485E+00  3.2192274022E+00  4.6544981105E-01  3.7970079194E-01  8.1439137164E-01
  2.9247491639E+04  5.7592697219E+00  3.2186145495E+00  4.7017966699E-01  3.8296974072E-01  8.1511602705E-01
  2.9344481605E+04  5.7899036279E+00  3.2180038418E+00  4.7494166194E-01  3.8625133028E-01  8.1583785056E-01
  2.9441471572E+04  5.8205985859E+00  3.2173952646E+00  4.7973590669E-01  3.8954549233E-01  8.1655685463E-01
  2.9538461538E+04  5.8513545161E+00  3.2167888035E+00  4.8456251209E-01  3.9285215792E-01  8.1727305171E-01
  2.9635451505E+04  5.8821798759E+00  3.2162119973E+00  4.8942158896E-01  3.9617171426E-01  8.1798645420E-01
  2.9732441472E+04  5.9130714191E+00  3.2156542197E+00  4.9431324817E-01  3.9950393526E-01  8.1869707443E-01
  2.9829431438E+04  5.9440237963E+00  3.2150983549E+00  4.9923760057E-01  4.0284847157E-01  8.1940492471E-01
  2.9926421405E+04  5.9750369287E+00  3.2145443902E+00  5.0419475705E-01  4.0620525208E-01  8.2011001728E-01
  3.0023411371E+04  6.0061107382E+00  3.2139923130E+00  5.0919468833E-01  4.0958058450E-01  8.2081236436E-01
  3.0120401338E+04  6.0372473008E+00  3.2134578943E+00  5.1425905384E-01  4.1298850355E-01  8.2151197809E-01
  3.0217391304E+04  6.0684482291E+00  3.2129531894E+00  5.1935723701E-01  4.1640921130E-01  8.2220887058E-01
  3.0314381271E+04  6.0997096442E+00  3.2124501809E+00  5.2448935377E-01  4.1984216084E-01  8.2290305390E-01
  3.0411371237E+04  6.1310314695E+00  3.2119488575E+00  5.2965552007E-01  4.2328727713E-01  8.2359454005E-01
  3.0508361204E+04  6.1624136283E+00  3.2114492083E+00  5.3485585189E-01  4.2674448457E-01  8.2428334100E-01
  3.0605351171E+04  6.1938562242E+00  3.2109518066E+00  5.4009046523E-01  4.3021371830E-01  8.2496946867E-01
  3.0702341137E+04  6.2253720381E+00  3.2104982332E+00  5.4535947612E-01  4.3369572346E-01  8.2565293491E-01
  3.0799331104E+04  6.2569480504E+00  3.2100461542E+00  5.5066300060E-01  4.3718961360E-01  8.2633375156E-01
  3.0896321070E+04  6.2885841858E+00  3.2095955599E+00  5.5600115473E-01  4.4069531113E-01  8.2701193037E-01
  3.0993311037E+04  6.3202803696E+00  3.2091464409E+00  5.6137405462E-01  4.4421273790E-01  8.2768748308E-01
  3.1090301003E+04  6.3520365273E+00  3.2086987877E+00  5.6678181636E-01  4.4774181522E-01  8.2836042136E-01
  3.1187290970E+04  6.3838657258E+00  3.2082766400E+00  5.7222455609E-01  4.5128300536E-01  8.2903075683E-01
