#[MATERIAL DEFINITION FOR MC-GPU: interaction mean free path and sampling data from PENELOPE 2006]
#[MATERIAL NAME]
# Marrow_Bone06_18                                              
#[NOMINAL DENSITY (g/cm^3)]
#   1.40142000
#[NUMBER OF DATA VALUES]
#   1495
#[MEAN FREE PATHS (cm) (ie, average distance between interactions)]
#[Energy (eV)     | Rayleigh        | Compton         | Photoelectric   | TOTAL (+pair prod) (cm) | Rayleigh: max cumul prob F^2]
  5.0000000000E+03  1.0461186887E+00  6.2069529360E+00  5.8140288167E-03  5.7765137653E-03  2.7145247466E-01
  5.0969899666E+03  1.0661713808E+00  6.1517248968E+00  6.1272151720E-03  6.0861763980E-03  2.7634330917E-01
  5.1939799331E+03  1.0863631903E+00  6.0987975379E+00  6.4508186559E-03  6.4060040817E-03  2.8118450181E-01
  5.2909698997E+03  1.1066915520E+00  6.0480346963E+00  6.7849782287E-03  6.7361230481E-03  2.8597782701E-01
  5.3879598662E+03  1.1271538456E+00  5.9993100505E+00  7.1298319921E-03  7.0766582647E-03  2.9072497207E-01
  5.4849498328E+03  1.1477474045E+00  5.9525062600E+00  7.4856046624E-03  7.4278195561E-03  2.9542752899E-01
  5.5819397993E+03  1.1684695253E+00  5.9075141947E+00  7.8534001636E-03  7.7906813507E-03  3.0008706233E-01
  5.6789297659E+03  1.1893174770E+00  5.8642322423E+00  8.2323815409E-03  8.1644065928E-03  3.0470509966E-01
  5.7759197324E+03  1.2102885098E+00  5.8225656856E+00  8.6226857728E-03  8.5491172325E-03  3.0928304053E-01
  5.8729096990E+03  1.2313798635E+00  5.7824261408E+00  9.0244490664E-03  8.9449339963E-03  3.1382221739E-01
  5.9698996656E+03  1.2525887797E+00  5.7437310481E+00  9.4378068734E-03  9.3519763957E-03  3.1832394484E-01
  6.0668896321E+03  1.2739126901E+00  5.7064030786E+00  9.8638438147E-03  9.7712949132E-03  3.2278945922E-01
  6.1638795987E+03  1.2953495400E+00  5.6703695039E+00  1.0302249764E-02  1.0202569483E-02  3.2721988164E-01
  6.2608695652E+03  1.3168977544E+00  5.6355618889E+00  1.0754327296E-02  1.0647061268E-02  3.3161631309E-01
  6.3578595318E+03  1.3385557768E+00  5.6019161083E+00  1.1223434882E-02  1.1108041945E-02  3.3597986136E-01
  6.4548494983E+03  1.3603283974E+00  5.5694007105E+00  1.1705365470E-02  1.1581369118E-02  3.4031146750E-01
  6.5518394649E+03  1.3822156335E+00  5.5379645755E+00  1.2202386994E-02  1.2069244615E-02  3.4461196592E-01
  6.6488294314E+03  1.4042093857E+00  5.5075246859E+00  1.2713475885E-02  1.2570645509E-02  3.4888218875E-01
  6.7458193980E+03  1.4263079795E+00  5.4780308798E+00  1.3238038838E-02  1.3084972122E-02  3.5312296548E-01
  6.8428093645E+03  1.4485097327E+00  5.4494360232E+00  1.3776227306E-02  1.3612353210E-02  3.5733512277E-01
  6.9397993311E+03  1.4708129600E+00  5.4216958021E+00  1.4328192196E-02  1.4152916350E-02  3.6151944753E-01
  7.0367892977E+03  1.4932166966E+00  5.3947713788E+00  1.4895140813E-02  1.4707818557E-02  3.6567654131E-01
  7.1337792642E+03  1.5157411186E+00  5.3687064440E+00  1.5478012756E-02  1.5277955255E-02  3.6980695777E-01
  7.2307692308E+03  1.5383643256E+00  5.3433789664E+00  1.6075283695E-02  1.5861814698E-02  3.7391125404E-01
  7.3277591973E+03  1.5610851225E+00  5.3187535975E+00  1.6687106431E-02  1.6459523288E-02  3.7798998986E-01
  7.4247491639E+03  1.5839022658E+00  5.2947970683E+00  1.7313633262E-02  1.7071206227E-02  3.8204372665E-01
  7.5217391304E+03  1.6068276129E+00  5.2715224758E+00  1.7955015995E-02  1.7696989609E-02  3.8607295948E-01
  7.6187290970E+03  1.6298648395E+00  5.2489122458E+00  1.8611405950E-02  1.8336997338E-02  3.9007806044E-01
  7.7157190635E+03  1.6529963279E+00  5.2268815492E+00  1.9282953968E-02  1.8991348575E-02  3.9405939584E-01
  7.8127090301E+03  1.6762206628E+00  5.2054039630E+00  1.9969810420E-02  1.9660163743E-02  3.9801733749E-01
  7.9096989967E+03  1.6995576131E+00  5.1845181927E+00  2.0672125213E-02  2.0343566067E-02  4.0195226206E-01
  8.0066889632E+03  1.7230009488E+00  5.1641806681E+00  2.1390885752E-02  2.1042483972E-02  4.0586452629E-01
  8.1036789298E+03  1.7465348114E+00  5.1443242225E+00  2.2137092503E-02  2.1767521952E-02  4.0975438571E-01
  8.2006688963E+03  1.7701645751E+00  5.1249466152E+00  2.2899921627E-02  2.2508168531E-02  4.1362207653E-01
  8.2976588629E+03  1.7939185025E+00  5.1061033129E+00  2.3679538220E-02  2.3264559132E-02  4.1746784187E-01
  8.3946488294E+03  1.8177613430E+00  5.0876799995E+00  2.4476107013E-02  2.4036814258E-02  4.2129193104E-01
  8.4916387960E+03  1.8416929927E+00  5.0696627122E+00  2.5289792368E-02  2.4825060429E-02  4.2509457837E-01
  8.5886287625E+03  1.8657580816E+00  5.0521433241E+00  2.6120758293E-02  2.5629434076E-02  4.2887594370E-01
  8.6856187291E+03  1.8899100714E+00  5.0349913229E+00  2.6969168439E-02  2.6450048446E-02  4.3263617616E-01
  8.7826086957E+03  1.9141530879E+00  5.0182049933E+00  2.7835186107E-02  2.7287027449E-02  4.3637543215E-01
  8.8795986622E+03  1.9385288977E+00  5.0018615613E+00  2.8718974252E-02  2.8140504362E-02  4.4009387431E-01
  8.9765886288E+03  1.9629890595E+00  4.9858400829E+00  2.9620695490E-02  2.9010586851E-02  4.4379163809E-01
  9.0735785953E+03  1.9875527874E+00  4.9701706592E+00  3.0545207861E-02  2.9901899709E-02  4.4746881216E-01
  9.1705685619E+03  2.0122380495E+00  4.9548746138E+00  3.1489748200E-02  3.0811753330E-02  4.5112548831E-01
  9.2675585284E+03  2.0370048181E+00  4.9398615106E+00  3.2453028048E-02  3.1738860474E-02  4.5476176551E-01
  9.3645484950E+03  2.0618999226E+00  4.9252095413E+00  3.3435215316E-02  3.2683356954E-02  4.5837774207E-01
  9.4615384615E+03  2.0868936017E+00  4.9108500721E+00  3.4436477618E-02  3.3645353071E-02  4.6197347601E-01
  9.5585284281E+03  2.1119808383E+00  4.8967660932E+00  3.5456982271E-02  3.4624965341E-02  4.6554901502E-01
  9.6555183946E+03  2.1372036418E+00  4.8830179966E+00  3.6496896298E-02  3.5622325849E-02  4.6910441423E-01
  9.7525083612E+03  2.1625034577E+00  4.8694980527E+00  3.7556386432E-02  3.6637529433E-02  4.7263973971E-01
  9.8494983278E+03  2.1879406976E+00  4.8562954086E+00  3.8635619122E-02  3.7670713184E-02  4.7615505125E-01
  9.9464882943E+03  2.2134703755E+00  4.8433283635E+00  3.9734760529E-02  3.8721973372E-02  4.7965034971E-01
  1.0043478261E+04  2.2391103371E+00  4.8306174734E+00  4.0858899248E-02  3.9796098837E-02  4.8312563737E-01
  1.0140468227E+04  2.2648716515E+00  4.8181691461E+00  4.2009707700E-02  4.0894617709E-02  4.8658092434E-01
  1.0237458194E+04  2.2907184488E+00  4.8059254136E+00  4.3181441918E-02  4.2012010187E-02  4.9001622805E-01
  1.0334448161E+04  2.3167135021E+00  4.7939655764E+00  4.4374276997E-02  4.3148419411E-02  4.9343157290E-01
  1.0431438127E+04  2.3427774853E+00  4.7821747026E+00  4.5588387798E-02  4.4303923903E-02  4.9682698987E-01
  1.0528428094E+04  2.3690024904E+00  4.7706680245E+00  4.6823948949E-02  4.5478679317E-02  5.0020251236E-01
  1.0625418060E+04  2.3953002878E+00  4.7593238549E+00  4.8081134848E-02  4.6672755177E-02  5.0355813232E-01
  1.0722408027E+04  2.4217449608E+00  4.7482300965E+00  4.9360119666E-02  4.7886297951E-02  5.0689382289E-01
  1.0819397993E+04  2.4482780479E+00  4.7373076243E+00  5.0661077349E-02  4.9119386822E-02  5.1020956542E-01
  1.0916387960E+04  2.4749470004E+00  4.7266083035E+00  5.1984181620E-02  5.0372153862E-02  5.1350534865E-01
  1.1013377926E+04  2.5017165498E+00  4.7160840536E+00  5.3329605981E-02  5.1644686084E-02  5.1678116832E-01
  1.1110367893E+04  2.5286144270E+00  4.7057618331E+00  5.4697523713E-02  5.2937103376E-02  5.2003702683E-01
  1.1207357860E+04  2.5556212979E+00  4.6956137442E+00  5.6091482634E-02  5.4252654947E-02  5.2327293295E-01
  1.1304347826E+04  2.5827527774E+00  4.6856523416E+00  5.7517330911E-02  5.5596742531E-02  5.2648888636E-01
  1.1401337793E+04  2.6099975050E+00  4.6758596597E+00  5.8966710871E-02  5.6961467157E-02  5.2968485819E-01
  1.1498327759E+04  2.6373672945E+00  4.6662437665E+00  6.0439804201E-02  5.8346941477E-02  5.3286082325E-01
  1.1595317726E+04  2.6648500797E+00  4.6567869477E+00  6.1936792408E-02  5.9753261373E-02  5.3601676344E-01
  1.1692307692E+04  2.6924629158E+00  4.6475021553E+00  6.3457856829E-02  6.1180540435E-02  5.3915266746E-01
  1.1789297659E+04  2.7201836137E+00  4.6383627777E+00  6.5003178624E-02  6.2628864210E-02  5.4226853052E-01
  1.1886287625E+04  2.7480442602E+00  4.6293955106E+00  6.6572938782E-02  6.4098354376E-02  5.4536435409E-01
  1.1983277592E+04  2.7760023701E+00  4.6205561939E+00  6.8167318124E-02  6.5589078100E-02  5.4844013459E-01
  1.2080267559E+04  2.8041156160E+00  4.6118936481E+00  6.9786497300E-02  6.7101173981E-02  5.5149584936E-01
  1.2177257525E+04  2.8323102698E+00  4.6033379800E+00  7.1430656794E-02  6.8634680980E-02  5.5453148015E-01
  1.2274247492E+04  2.8606809279E+00  4.5949680680E+00  7.3099976923E-02  7.0189765335E-02  5.5754701537E-01
  1.2371237458E+04  2.8891108793E+00  4.5866805374E+00  7.4794637840E-02  7.1766425983E-02  5.6054244985E-01
  1.2468227425E+04  2.9177437933E+00  4.5785918489E+00  7.6514819535E-02  7.3364869629E-02  5.6351778458E-01
  1.2565217391E+04  2.9464353068E+00  4.5705799381E+00  7.8272752565E-02  7.4996128163E-02  5.6647303087E-01
  1.2662207358E+04  2.9753077571E+00  4.5627399388E+00  8.0063008378E-02  7.6655202780E-02  5.6940822690E-01
  1.2759197324E+04  3.0042678760E+00  4.5549950538E+00  8.1880017528E-02  7.8336809164E-02  5.7232336187E-01
  1.2856187291E+04  3.0333765638E+00  4.5473893484E+00  8.3723970566E-02  8.0041091666E-02  5.7521842006E-01
  1.2953177258E+04  3.0626111120E+00  4.5399026096E+00  8.5595057920E-02  8.1768119093E-02  5.7809339235E-01
  1.3050167224E+04  3.0919540112E+00  4.5325188155E+00  8.7493469906E-02  8.3517961241E-02  5.8094827600E-01
  1.3147157191E+04  3.1214688890E+00  4.5252818460E+00  8.9419396718E-02  8.5290765998E-02  5.8378307442E-01
  1.3244147157E+04  3.1510454614E+00  4.5181094978E+00  9.1373028436E-02  8.7086507160E-02  5.8659779692E-01
  1.3341137124E+04  3.1808446081E+00  4.5111129393E+00  9.3354555025E-02  8.8905430827E-02  5.8939245851E-01
  1.3438127090E+04  3.2107086674E+00  4.5041791719E+00  9.5364166334E-02  9.0747454916E-02  5.9216707967E-01
  1.3535117057E+04  3.2407411714E+00  4.4973769340E+00  9.7402052101E-02  9.2612767052E-02  5.9492168614E-01
  1.3632107023E+04  3.2708987298E+00  4.4906743629E+00  9.9468401948E-02  9.4501398451E-02  5.9765630873E-01
  1.3729096990E+04  3.3011609630E+00  4.4840556869E+00  1.0156411674E-01  9.6414041336E-02  6.0037098309E-01
  1.3826086957E+04  3.3316180654E+00  4.4775772901E+00  1.0368992091E-01  9.8351351857E-02  6.0306574125E-01
  1.3923076923E+04  3.3621403134E+00  4.4711534428E+00  1.0584481786E-01  1.0031217964E-01  6.0574059082E-01
  1.4020066890E+04  3.3928685497E+00  4.4648709120E+00  1.0802899748E-01  1.0229676333E-01  6.0839553898E-01
  1.4117056856E+04  3.4236977518E+00  4.4586618483E+00  1.1024264959E-01  1.0430504532E-01  6.1103059895E-01
  1.4214046823E+04  3.4546514977E+00  4.4525388804E+00  1.1248596387E-01  1.0633712008E-01  6.1364578970E-01
  1.4311036789E+04  3.4857937940E+00  4.4465383724E+00  1.1475912992E-01  1.0839313650E-01  6.1624113582E-01
  1.4408026756E+04  3.5170036331E+00  4.4405863995E+00  1.1706233721E-01  1.1047299964E-01  6.1881666724E-01
  1.4505016722E+04  3.5484291979E+00  4.4347676100E+00  1.1939577511E-01  1.1257696909E-01  6.2137241908E-01
  1.4602006689E+04  3.5799597103E+00  4.4290158558E+00  1.2175963290E-01  1.1470495632E-01  6.2390843142E-01
  1.4698996656E+04  3.6116041169E+00  4.4233347505E+00  1.2415409973E-01  1.1685702932E-01  6.2642474913E-01
  1.4795986622E+04  3.6434615263E+00  4.4177776694E+00  1.2657936468E-01  1.1903338780E-01  6.2892142167E-01
  1.4892976589E+04  3.6753890422E+00  4.4122638102E+00  1.2903561669E-01  1.2123387946E-01  6.3139849935E-01
  1.4989966555E+04  3.7075084468E+00  4.4068578418E+00  1.3152304463E-01  1.2345873673E-01  6.3385601624E-01
  1.5086956522E+04  3.7397703087E+00  4.4015312270E+00  1.3406742926E-01  1.2573044722E-01  6.3629400534E-01
  1.5183946488E+04  3.7721034680E+00  4.3962451227E+00  1.3664719172E-01  1.2802971244E-01  6.3871250496E-01
  1.5280936455E+04  3.8046986659E+00  4.3910985761E+00  1.3925962758E-01  1.3035432986E-01  6.4111155856E-01
  1.5377926421E+04  3.8373709094E+00  4.3859927760E+00  1.4190493816E-01  1.3270405513E-01  6.4349121443E-01
  1.5474916388E+04  3.8701699834E+00  4.3809530830E+00  1.4458332472E-01  1.3507901635E-01  6.4585152558E-01
  1.5571906355E+04  3.9031829541E+00  4.3760229638E+00  1.4729498847E-01  1.3747941180E-01  6.4819254952E-01
  1.5668896321E+04  3.9362699217E+00  4.3711289535E+00  1.5004013057E-01  1.3990504582E-01  6.5051434809E-01
  1.5765886288E+04  3.9695346482E+00  4.3663235539E+00  1.5281895209E-01  1.4235614444E-01  6.5281698724E-01
  1.5862876254E+04  4.0029653811E+00  4.3615990114E+00  1.5563165408E-01  1.4483273183E-01  6.5510053682E-01
  1.5959866221E+04  4.0364713052E+00  4.3569083337E+00  1.5847843752E-01  1.4733467795E-01  6.5736506192E-01
  1.6056856187E+04  4.0701968317E+00  4.3523235884E+00  1.6135950333E-01  1.4986229474E-01  6.5961061719E-01
  1.6153846154E+04  4.1040494691E+00  4.3477965430E+00  1.6427505237E-01  1.5241544355E-01  6.6183726064E-01
  1.6250836120E+04  4.1379784889E+00  4.3433012641E+00  1.6722528546E-01  1.5499405388E-01  6.6404505472E-01
  1.6347826087E+04  4.1721596421E+00  4.3389241920E+00  1.7021040335E-01  1.5759851520E-01  6.6623406617E-01
  1.6444816054E+04  4.2064382340E+00  4.3345870584E+00  1.7323060674E-01  1.6022854353E-01  6.6840436584E-01
  1.6541806020E+04  4.2407962209E+00  4.3302806212E+00  1.7628609628E-01  1.6288412271E-01  6.7055602849E-01
  1.6638795987E+04  4.2754256890E+00  4.3260979544E+00  1.7937707254E-01  1.6556569595E-01  6.7268913262E-01
  1.6735785953E+04  4.3101341945E+00  4.3219436033E+00  1.8250373608E-01  1.6827287037E-01  6.7480376030E-01
  1.6832775920E+04  4.3449350216E+00  4.3178237660E+00  1.8566628737E-01  1.7100569090E-01  6.7689999636E-01
  1.6929765886E+04  4.3799970919E+00  4.3138189288E+00  1.8886492684E-01  1.7376456854E-01  6.7897791422E-01
  1.7026755853E+04  4.4151393798E+00  4.3098406525E+00  1.9209985487E-01  1.7654910397E-01  6.8103758733E-01
  1.7123745819E+04  4.4503770343E+00  4.3058959545E+00  1.9537127176E-01  1.7935934252E-01  6.8307909542E-01
  1.7220735786E+04  4.4858754882E+00  4.3020625217E+00  1.9867937780E-01  1.8219570524E-01  6.8510252182E-01
  1.7317725753E+04  4.5214553380E+00  4.2982540029E+00  2.0202437319E-01  1.8505776496E-01  6.8710795328E-01
  1.7414715719E+04  4.5571235103E+00  4.2944734769E+00  2.0540645810E-01  1.8794554180E-01  6.8909547978E-01
  1.7511705686E+04  4.5930620178E+00  4.2908053885E+00  2.0882901222E-01  1.9086217459E-01  6.9106519440E-01
  1.7608695652E+04  4.6290830970E+00  4.2871606672E+00  2.1231263050E-01  1.9382416179E-01  6.9301719316E-01
  1.7705685619E+04  4.6651864813E+00  4.2835390367E+00  2.1583467457E-01  1.9681237293E-01  6.9495157484E-01
  1.7802675585E+04  4.7015570927E+00  4.2800252952E+00  2.1939535322E-01  1.9982732329E-01  6.9686942752E-01
  1.7899665552E+04  4.7380227446E+00  4.2765387011E+00  2.2299487518E-01  2.0286854251E-01  6.9877218947E-01
  1.7996655518E+04  4.7745718771E+00  4.2730737656E+00  2.2663344917E-01  2.0593599074E-01  7.0065991684E-01
  1.8093645485E+04  4.8113601319E+00  4.2697009884E+00  2.3031128388E-01  2.0903012082E-01  7.0253265975E-01
  1.8190635452E+04  4.8482734623E+00  4.2663671394E+00  2.3402858798E-01  2.1215059942E-01  7.0439047112E-01
  1.8287625418E+04  4.8852714430E+00  4.2630536012E+00  2.3778557010E-01  2.1529729415E-01  7.0623340659E-01
  1.8384615385E+04  4.9224698570E+00  4.2598121859E+00  2.4158243886E-01  2.1847055316E-01  7.0806152442E-01
  1.8481605351E+04  4.9598338664E+00  4.2566259939E+00  2.4541940285E-01  2.2167026497E-01  7.0987488531E-01
  1.8578595318E+04  4.9972836897E+00  4.2534588436E+00  2.4929667063E-01  2.2489616212E-01  7.1167355239E-01
  1.8675585284E+04  5.0348845645E+00  4.2503395607E+00  2.5321445073E-01  2.2814843922E-01  7.1345759102E-01
  1.8772575251E+04  5.0727021501E+00  4.2472962115E+00  2.5717657633E-01  2.3143023996E-01  7.1522706877E-01
  1.8869565217E+04  5.1106067074E+00  4.2442707079E+00  2.6118159159E-01  2.3473974635E-01  7.1698205524E-01
  1.8966555184E+04  5.1486021406E+00  4.2412646753E+00  2.6522788485E-01  2.3807546462E-01  7.1872262202E-01
  1.9063545151E+04  5.1868760974E+00  4.2383596102E+00  2.6931566607E-01  2.4143803602E-01  7.2044884258E-01
  1.9160535117E+04  5.2252381775E+00  4.2354712625E+00  2.7344514517E-01  2.4482676875E-01  7.2216079215E-01
  1.9257525084E+04  5.2636881363E+00  4.2325994521E+00  2.7761653205E-01  2.4824162705E-01  7.2385854768E-01
  1.9354515050E+04  5.3023530943E+00  4.2297988206E+00  2.8183003659E-01  2.5168305397E-01  7.2554218768E-01
  1.9451505017E+04  5.3411753842E+00  4.2270433715E+00  2.8608586866E-01  2.5515081211E-01  7.2721179169E-01
  1.9548494983E+04  5.3800867021E+00  4.2243034094E+00  2.9038423810E-01  2.5864460663E-01  7.2886743010E-01
  1.9645484950E+04  5.4191301417E+00  4.2215972319E+00  2.9472535473E-01  2.6216456602E-01  7.3050916524E-01
  1.9742474916E+04  5.4584152267E+00  4.2189706424E+00  2.9910942833E-01  2.6571109623E-01  7.3213706139E-01
  1.9839464883E+04  5.4977904831E+00  4.2163585475E+00  3.0353666869E-01  2.6928355631E-01  7.3375118505E-01
  1.9936454849E+04  5.5372556754E+00  4.2137607967E+00  3.0800728557E-01  2.7288189611E-01  7.3535160479E-01
  2.0033444816E+04  5.5769544691E+00  4.2112373524E+00  3.1253122121E-01  2.7651429470E-01  7.3693839122E-01
  2.0130434783E+04  5.6167964685E+00  4.2087493106E+00  3.1711791514E-01  2.8018747878E-01  7.3851161682E-01
  2.0227424749E+04  5.6567295475E+00  4.2062746869E+00  3.2174932046E-01  2.8388683919E-01  7.4007135589E-01
  2.0324414716E+04  5.6967902492E+00  4.2038283563E+00  3.2642565454E-01  2.8761248226E-01  7.4161768443E-01
  2.0421404682E+04  5.7371035340E+00  4.2014605591E+00  3.3114713474E-01  2.9136492235E-01  7.4315068007E-01
  2.0518394649E+04  5.7775090557E+00  4.1991053052E+00  3.3591397840E-01  2.9514339472E-01  7.4467042195E-01
  2.0615384615E+04  5.8180065880E+00  4.1967624693E+00  3.4072640291E-01  2.9894783563E-01  7.4617699065E-01
  2.0712374582E+04  5.8587117481E+00  4.1944776239E+00  3.4558462561E-01  3.0277872665E-01  7.4767046810E-01
  2.0809364548E+04  5.8995948817E+00  4.1922381026E+00  3.5048886386E-01  3.0663588274E-01  7.4915093750E-01
  2.0906354515E+04  5.9405712060E+00  4.1900101827E+00  3.5543933504E-01  3.1051884046E-01  7.5061848323E-01
  2.1003344482E+04  5.9816404998E+00  4.1877937506E+00  3.6043625649E-01  3.1442752793E-01  7.5207319037E-01
  2.1100334448E+04  6.0229872334E+00  4.1856591331E+00  3.6547984559E-01  3.1836279462E-01  7.5351513792E-01
  2.1197324415E+04  6.0644475289E+00  4.1835427105E+00  3.7057031970E-01  3.2232377399E-01  7.5494440106E-01
  2.1294314381E+04  6.1060019971E+00  4.1814370125E+00  3.7570789619E-01  3.2631029388E-01  7.5636105642E-01
  2.1391304348E+04  6.1476856619E+00  4.1793550325E+00  3.8089279241E-01  3.3032245800E-01  7.5776518212E-01
  2.1488294314E+04  6.1896350955E+00  4.1773468493E+00  3.8612522573E-01  3.3436091460E-01  7.5915685760E-01
  2.1585284281E+04  6.2316799242E+00  4.1753486682E+00  3.9140541353E-01  3.3842470642E-01  7.6053616360E-01
  2.1682274247E+04  6.2738199347E+00  4.1733603949E+00  3.9673357316E-01  3.4251374798E-01  7.6190318202E-01
  2.1779264214E+04  6.3161327671E+00  4.1714099332E+00  4.0210992199E-01  3.4662837949E-01  7.6325799591E-01
  2.1876254181E+04  6.3586731275E+00  4.1695162001E+00  4.0753467739E-01  3.5076883470E-01  7.6460068932E-01
  2.1973244147E+04  6.4013099149E+00  4.1676316985E+00  4.1300805672E-01  3.5493431314E-01  7.6593134726E-01
  2.2070234114E+04  6.4440429207E+00  4.1657563430E+00  4.1853027736E-01  3.5912472173E-01  7.6725005564E-01
  2.2167224080E+04  6.4869797558E+00  4.1639275879E+00  4.2410155667E-01  3.6334058945E-01  7.6855690117E-01
  2.2264214047E+04  6.5301184932E+00  4.1621439639E+00  4.2972211202E-01  3.6758183392E-01  7.6985197131E-01
  2.2361204013E+04  6.5733547167E+00  4.1603688521E+00  4.3539239331E-01  3.7184793112E-01  7.7113535420E-01
  2.2458193980E+04  6.6166882222E+00  4.1586021753E+00  4.4115739669E-01  3.7617133744E-01  7.7240713813E-01
  2.2555183946E+04  6.6602430830E+00  4.1568857676E+00  4.4697332291E-01  3.8052049213E-01  7.7366740621E-01
  2.2652173913E+04  6.7039876964E+00  4.1552081674E+00  4.5284039899E-01  3.8489512600E-01  7.7491623863E-01
  2.2749163880E+04  6.7478308819E+00  4.1535384076E+00  4.5875885197E-01  3.8929458574E-01  7.7615371653E-01
  2.2846153846E+04  6.7917724398E+00  4.1518764184E+00  4.6472890892E-01  3.9371876285E-01  7.7737992195E-01
  2.2943143813E+04  6.8359385141E+00  4.1502634188E+00  4.7075079694E-01  3.9816835549E-01  7.7859493770E-01
  2.3040133779E+04  6.8802965484E+00  4.1486879938E+00  4.7682474314E-01  4.0264307229E-01  7.7979884738E-01
  2.3137123746E+04  6.9247542675E+00  4.1471197811E+00  4.8295097466E-01  4.0714221769E-01  7.8099173524E-01
  2.3234113712E+04  6.9693114760E+00  4.1455587176E+00  4.8912971867E-01  4.1166567602E-01  7.8217368615E-01
  2.3331103679E+04  7.0140810938E+00  4.1440405773E+00  4.9536120235E-01  4.1621408949E-01  7.8334478553E-01
  2.3428093645E+04  7.0590601365E+00  4.1425636980E+00  5.0164565292E-01  4.2078734780E-01  7.8450511930E-01
  2.3525083612E+04  7.1041400030E+00  4.1410934433E+00  5.0798329761E-01  4.2538461110E-01  7.8565477380E-01
  2.3622073579E+04  7.1493205025E+00  4.1396297564E+00  5.1437436368E-01  4.3000575684E-01  7.8679383578E-01
  2.3719063545E+04  7.1946851125E+00  4.1381982895E+00  5.2081907841E-01  4.3465124962E-01  7.8792239228E-01
  2.3816053512E+04  7.2402927905E+00  4.1368165299E+00  5.2731766909E-01  4.3932140582E-01  7.8904053034E-01
  2.3913043478E+04  7.2860024579E+00  4.1354408445E+00  5.3387036306E-01  4.4401511821E-01  7.9014833278E-01
  2.4010033445E+04  7.3318139279E+00  4.1340711823E+00  5.4047738767E-01  4.4873225770E-01  7.9124587977E-01
  2.4107023411E+04  7.3777640738E+00  4.1327185412E+00  5.4713897028E-01  4.5347296642E-01  7.9233325200E-01
  2.4204013378E+04  7.4240080504E+00  4.1314286639E+00  5.5385533829E-01  4.5823827912E-01  7.9341053065E-01
  2.4301003344E+04  7.4703552082E+00  4.1301443452E+00  5.6062671911E-01  4.6302667526E-01  7.9447779733E-01
  2.4397993311E+04  7.5168053641E+00  4.1288655392E+00  5.6745334018E-01  4.6783801949E-01  7.9553513403E-01
  2.4494983278E+04  7.5633583364E+00  4.1275922004E+00  5.7433542897E-01  4.7267217471E-01  7.9658262307E-01
  2.4591973244E+04  7.6102186326E+00  4.1263831350E+00  5.8127321295E-01  4.7753059628E-01  7.9762034705E-01
  2.4688963211E+04  7.6572110030E+00  4.1251871533E+00  5.8826691962E-01  4.8241181892E-01  7.9864838882E-01
  2.4785953177E+04  7.7043075933E+00  4.1239962054E+00  5.9531677652E-01  4.8731548822E-01  7.9966683138E-01
  2.4882943144E+04  7.7515082253E+00  4.1228102506E+00  6.0242301118E-01  4.9224146126E-01  8.0067575788E-01
  2.4979933110E+04  7.7989354060E+00  4.1216637639E+00  6.0958585118E-01  4.9719059434E-01  8.0167525159E-01
  2.5076923077E+04  7.8465788429E+00  4.1205532217E+00  6.1684105333E-01  5.0218623996E-01  8.0266539575E-01
  2.5173913043E+04  7.8943277313E+00  4.1194472640E+00  6.2416338547E-01  5.0721028618E-01  8.0364627119E-01
  2.5270903010E+04  7.9421818970E+00  4.1183458543E+00  6.3154390655E-01  5.1225647816E-01  8.0461795530E-01
  2.5367892977E+04  7.9901620855E+00  4.1172550264E+00  6.3898285217E-01  5.1732484763E-01  8.0558052551E-01
  2.5464882943E+04  8.0384496988E+00  4.1162269890E+00  6.4648045799E-01  5.2241685753E-01  8.0653405947E-01
  2.5561872910E+04  8.0868439011E+00  4.1152031150E+00  6.5403695969E-01  5.2753061245E-01  8.0747863505E-01
  2.5658862876E+04  8.1353445218E+00  4.1141833717E+00  6.6165259300E-01  5.3266595677E-01  8.0841433022E-01
  2.5755852843E+04  8.1839513915E+00  4.1131677271E+00  6.6932759370E-01  5.3782273337E-01  8.0934122310E-01
  2.5852842809E+04  8.2327855262E+00  4.1121932022E+00  6.7706219758E-01  5.4300195692E-01  8.1025939184E-01
  2.5949832776E+04  8.2818121905E+00  4.1112485784E+00  6.8485664050E-01  5.4820316666E-01  8.1116891464E-01
  2.6046822742E+04  8.3309462767E+00  4.1103076945E+00  6.9271115835E-01  5.5342538828E-01  8.1206986966E-01
  2.6143812709E+04  8.3801876190E+00  4.1093705217E+00  7.0062598705E-01  5.5866845969E-01  8.1296233505E-01
  2.6240802676E+04  8.4295364523E+00  4.1084371626E+00  7.0860136255E-01  5.6393222166E-01  8.1384638884E-01
  2.6337792642E+04  8.4791818704E+00  4.1075690977E+00  7.1663752088E-01  5.6921854367E-01  8.1472210790E-01
  2.6434782609E+04  8.5289355753E+00  4.1067044060E+00  7.2473469806E-01  5.7452528020E-01  8.1558956468E-01
  2.6531772575E+04  8.5787974046E+00  4.1058430621E+00  7.3289313018E-01  5.7985226455E-01  8.1644883307E-01
  2.6628762542E+04  8.6287671969E+00  4.1049850409E+00  7.4111305336E-01  5.8519932870E-01  8.1729998719E-01
  2.6725752508E+04  8.6789031409E+00  4.1041508086E+00  7.4939470374E-01  5.9056699785E-01  8.1814310112E-01
  2.6822742475E+04  8.7292617939E+00  4.1033597734E+00  7.5773831753E-01  5.9595580496E-01  8.1897824888E-01
  2.6919732441E+04  8.7797293001E+00  4.1025717450E+00  7.6614413096E-01  6.0136423980E-01  8.1980550419E-01
  2.7016722408E+04  8.8303055016E+00  4.1017867012E+00  7.7461238029E-01  6.0679213019E-01  8.2062493926E-01
  2.7113712375E+04  8.8809902408E+00  4.1010046201E+00  7.8314330184E-01  6.1223930279E-01  8.2143662604E-01
  2.7210702341E+04  8.9318755828E+00  4.1002607051E+00  7.9173713194E-01  6.1770682366E-01  8.2224056326E-01
  2.7307692308E+04  8.9829331513E+00  4.0995435999E+00  8.0039410697E-01  6.2319417146E-01  8.2303719735E-01
  2.7404682274E+04  9.0341000072E+00  4.0988291619E+00  8.0911453879E-01  6.2870037975E-01  8.2382872826E-01
  2.7501672241E+04  9.0853759963E+00  4.0981173717E+00  8.1789891092E-01  6.3422541949E-01  8.2461605625E-01
  2.7598662207E+04  9.1367609653E+00  4.0974082104E+00  8.2674714445E-01  6.3976892134E-01  8.2539920656E-01
  2.7695652174E+04  9.1883604043E+00  4.0967462512E+00  8.3565947597E-01  6.4533233379E-01  8.2617820733E-01
  2.7792642140E+04  9.2401013766E+00  4.0961001593E+00  8.4463614209E-01  6.5091439287E-01  8.2695308679E-01
  2.7889632107E+04  9.2919519371E+00  4.0954564196E+00  8.5367737949E-01  6.5651443321E-01  8.2772387290E-01
  2.7986622074E+04  9.3439119355E+00  4.0948150154E+00  8.6278342484E-01  6.6213227351E-01  8.2849059340E-01
  2.8083612040E+04  9.3959812224E+00  4.0941759301E+00  8.7195451488E-01  6.6776773148E-01  8.2925327575E-01
  2.8180602007E+04  9.4482622078E+00  4.0935879821E+00  8.8119088637E-01  6.7342246658E-01  8.3001194721E-01
  2.8277591973E+04  9.5006699010E+00  4.0930101561E+00  8.9049277612E-01  6.7909480984E-01  8.3076663477E-01
  2.8374581940E+04  9.5531873495E+00  4.0924343897E+00  8.9986042096E-01  6.8478427812E-01  8.3151736521E-01
  2.8471571906E+04  9.6058144067E+00  4.0918606686E+00  9.0929405776E-01  6.9049068639E-01  8.3226416505E-01
  2.8568561873E+04  9.6585509269E+00  4.0912889787E+00  9.1879392343E-01  6.9621384883E-01  8.3300706060E-01
  2.8665551839E+04  9.7114840024E+00  4.0907674867E+00  9.2836025492E-01  7.0195545331E-01  8.3374607794E-01
  2.8762541806E+04  9.7645405863E+00  4.0902553352E+00  9.3799328920E-01  7.0771378544E-01  8.3448124292E-01
  2.8859531773E+04  9.8177069586E+00  4.0897449717E+00  9.4769326328E-01  7.1348836894E-01  8.3521258117E-01
  2.8956521739E+04  9.8709829763E+00  4.0892363839E+00  9.5746041421E-01  7.1927901569E-01  8.3594011811E-01
  2.9053511706E+04  9.9243684971E+00  4.0887295597E+00  9.6729497909E-01  7.2508553692E-01  8.3666387894E-01
  2.9150501672E+04  9.9779276500E+00  4.0882673318E+00  9.7719719501E-01  7.3090945750E-01  8.3738388863E-01
  2.9247491639E+04  1.0031614173E+01  4.0878184086E+00  9.8716729915E-01  7.3674939475E-01  8.3810017195E-01
  2.9344481605E+04  1.0085410384E+01  4.0873710206E+00  9.9720552868E-01  7.4260469522E-01  8.3881275347E-01
  2.9441471572E+04  1.0139316142E+01  4.0869251577E+00  1.0073121208E+00  7.4847516829E-01  8.3952165754E-01
  2.9538461538E+04  1.0193331309E+01  4.0864808096E+00  1.0174873128E+00  7.5436062282E-01  8.4022690830E-01
  2.9635451505E+04  1.0247494339E+01  4.0860709939E+00  1.0277313420E+00  7.6026222289E-01  8.4092852971E-01
  2.9732441472E+04  1.0301790781E+01  4.0856829867E+00  1.0380444456E+00  7.6617930746E-01  8.4162654624E-01
  2.9829431438E+04  1.0356196676E+01  4.0852962798E+00  1.0484268611E+00  7.7211085546E-01  8.4232098318E-01
  2.9926421405E+04  1.0410711888E+01  4.0849108646E+00  1.0588788259E+00  7.7805667436E-01  8.4301186518E-01
  3.0023411371E+04  1.0465336280E+01  4.0845267328E+00  1.0694209628E+00  7.8402752814E-01  8.4369921663E-01
  3.0120401338E+04  1.0520088175E+01  4.0841627869E+00  1.0800980668E+00  7.9004772620E-01  8.4438306171E-01
  3.0217391304E+04  1.0574981925E+01  4.0838334832E+00  1.0908468487E+00  7.9608343119E-01  8.4506342436E-01
  3.0314381271E+04  1.0629984820E+01  4.0835052613E+00  1.1016675566E+00  8.0213302635E-01  8.4574032831E-01
  3.0411371237E+04  1.0685096727E+01  4.0831781140E+00  1.1125604385E+00  8.0819631360E-01  8.4641379705E-01
  3.0508361204E+04  1.0740317514E+01  4.0828520346E+00  1.1235257425E+00  8.1427309453E-01  8.4708385386E-01
  3.0605351171E+04  1.0795647873E+01  4.0825277157E+00  1.1345637170E+00  8.2036320337E-01  8.4775052181E-01
  3.0702341137E+04  1.0851146677E+01  4.0822549602E+00  1.1456746101E+00  8.2646882627E-01  8.4841382374E-01
  3.0799331104E+04  1.0906754395E+01  4.0819830832E+00  1.1568586701E+00  8.3258740728E-01  8.4907378229E-01
  3.0896321070E+04  1.0962470897E+01  4.0817120789E+00  1.1681161454E+00  8.3871874741E-01  8.4973041988E-01
  3.0993311037E+04  1.1018296053E+01  4.0814419420E+00  1.1794472844E+00  8.4486264741E-01  8.5038375876E-01
  3.1090301003E+04  1.1074229734E+01  4.0811726670E+00  1.1908523356E+00  8.5101890781E-01  8.5103382093E-01
  3.1187290970E+04  1.1130313905E+01  4.0809330324E+00  1.2023315475E+00  8.5718884857E-01  8.5168062822E-01
