#[MATERIAL DEFINITION FOR MC-GPU: interaction mean free path and sampling data from PENELOPE 2006]
#[MATERIAL NAME]
# Marrow_Bone07_19                                              
#[NOMINAL DENSITY (g/cm^3)]
#   1.46066000
#[NUMBER OF DATA VALUES]
#   1495
#[MEAN FREE PATHS (cm) (ie, average distance between interactions)]
#[Energy (eV)     | Rayleigh        | Compton         | Photoelectric   | TOTAL (+pair prod) (cm) | Rayleigh: max cumul prob F^2]
  5.0000000000E+03  9.6506744925E-01  6.0759875606E+00  5.1577690959E-03  5.1260218873E-03  2.6808683760E-01
  5.0969899666E+03  9.8338583393E-01  6.0206513479E+00  5.4348595076E-03  5.4001399364E-03  2.7297668082E-01
  5.1939799331E+03  1.0018297745E+00  5.9676188281E+00  5.7211311220E-03  5.6832275312E-03  2.7781835746E-01
  5.2909698997E+03  1.0203970717E+00  5.9167541193E+00  6.0167054510E-03  5.9753955792E-03  2.8261352067E-01
  5.3879598662E+03  1.0390854731E+00  5.8679311529E+00  6.3217032484E-03  6.2767538975E-03  2.8736373761E-01
  5.4849498328E+03  1.0578926808E+00  5.8210328152E+00  6.6363205221E-03  6.5874861047E-03  2.9207048465E-01
  5.5819397993E+03  1.0768163605E+00  5.7759501762E+00  6.9615171052E-03  6.9085275540E-03  2.9673521845E-01
  5.6789297659E+03  1.0958541485E+00  5.7325817992E+00  7.2965662567E-03  7.2391513831E-03  3.0135936491E-01
  5.7759197324E+03  1.1150036605E+00  5.6908331182E+00  7.6415876869E-03  7.5794648145E-03  3.0594422498E-01
  5.8729096990E+03  1.1342624981E+00  5.6506158772E+00  7.9967004255E-03  7.9295740200E-03  3.1049103815E-01
  5.9698996656E+03  1.1536282600E+00  5.6118476212E+00  8.3620228357E-03  8.2895841292E-03  3.1500103151E-01
  6.0668896321E+03  1.1730987022E+00  5.5744510703E+00  8.7384931722E-03  8.6604051906E-03  3.1947535837E-01
  6.1638795987E+03  1.1926720138E+00  5.5383534383E+00  9.1258446848E-03  9.0417621706E-03  3.2391506155E-01
  6.2608695652E+03  1.2123467879E+00  5.5034861428E+00  9.5252679200E-03  9.4348102266E-03  3.2832116814E-01
  6.3578595318E+03  1.2321216289E+00  5.4697849111E+00  9.9397945113E-03  9.8425068709E-03  3.3269471496E-01
  6.4548494983E+03  1.2520011147E+00  5.4372180162E+00  1.0365614547E-02  1.0261098525E-02  3.3703657805E-01
  6.5518394649E+03  1.2719853401E+00  5.4057342224E+00  1.0804772916E-02  1.0692573839E-02  3.4134753218E-01
  6.6488294314E+03  1.2920667498E+00  5.3752505458E+00  1.1256339778E-02  1.1136004202E-02  3.4562835254E-01
  6.7458193980E+03  1.3122438308E+00  5.3457167068E+00  1.1719774691E-02  1.1590844367E-02  3.4987981428E-01
  6.8428093645E+03  1.3325150599E+00  5.3170854550E+00  1.2195210241E-02  1.2057208096E-02  3.5410269196E-01
  6.9397993311E+03  1.3528789083E+00  5.2893123602E+00  1.2682778531E-02  1.2535208151E-02  3.5829772321E-01
  7.0367892977E+03  1.3733345246E+00  5.2623584619E+00  1.3183530832E-02  1.3025854151E-02  3.6246546709E-01
  7.1337792642E+03  1.3939010832E+00  5.2362671964E+00  1.3698285216E-02  1.3529927712E-02  3.6660643860E-01
  7.2307692308E+03  1.4145580187E+00  5.2109166292E+00  1.4225715992E-02  1.4046113477E-02  3.7072115773E-01
  7.3277591973E+03  1.4353042980E+00  5.1862712837E+00  1.4765956854E-02  1.4574523292E-02  3.7481014840E-01
  7.4247491639E+03  1.4561388331E+00  5.1622977636E+00  1.5319141050E-02  1.5115267989E-02  3.7887393749E-01
  7.5217391304E+03  1.4770730027E+00  5.1390090309E+00  1.5885401395E-02  1.5668459202E-02  3.8291298894E-01
  7.6187290970E+03  1.4981104645E+00  5.1163874679E+00  1.6464870268E-02  1.6234206700E-02  3.8692764954E-01
  7.7157190635E+03  1.5192345494E+00  5.0943481658E+00  1.7057679629E-02  1.6812616153E-02  3.9091826177E-01
  7.8127090301E+03  1.5404439778E+00  5.0728645777E+00  1.7663961017E-02  1.7403794353E-02  3.9488517436E-01
  7.9096989967E+03  1.5617577481E+00  5.0519753859E+00  1.8283845563E-02  1.8007850576E-02  3.9882874163E-01
  8.0066889632E+03  1.5831700525E+00  5.0316369760E+00  1.8918213417E-02  1.8625615608E-02  4.0274929958E-01
  8.1036789298E+03  1.6046657289E+00  5.0117819969E+00  1.9576898689E-02  1.9266587927E-02  4.0664708804E-01
  8.2006688963E+03  1.6262499462E+00  4.9924081227E+00  2.0250217006E-02  1.9921349470E-02  4.1052232919E-01
  8.2976588629E+03  1.6479496495E+00  4.9735709080E+00  2.0938312953E-02  2.0590020594E-02  4.1437525254E-01
  8.3946488294E+03  1.6697310857E+00  4.9551557133E+00  2.1641330788E-02  2.1272708680E-02  4.1820609419E-01
  8.4916387960E+03  1.6915941631E+00  4.9371484594E+00  2.2359414444E-02  2.1969526404E-02  4.2201507656E-01
  8.5886287625E+03  1.7135813382E+00  4.9196412662E+00  2.3092707535E-02  2.2680595105E-02  4.2580235142E-01
  8.6856187291E+03  1.7356482186E+00  4.9025032007E+00  2.3841353360E-02  2.3406015976E-02  4.2956806098E-01
  8.7826086957E+03  1.7577987425E+00  4.8857324781E+00  2.4605494908E-02  2.4145899541E-02  4.3331235491E-01
  8.8795986622E+03  1.7800725060E+00  4.8694066033E+00  2.5385274858E-02  2.4900364493E-02  4.3703539137E-01
  8.9765886288E+03  1.8024234735E+00  4.8534041600E+00  2.6180835588E-02  2.5669507311E-02  4.4073734288E-01
  9.0735785953E+03  1.8248698668E+00  4.8377553273E+00  2.6996489108E-02  2.6457444429E-02  4.4441828486E-01
  9.1705685619E+03  1.8474286899E+00  4.8224814330E+00  2.7829778919E-02  2.7261782320E-02  4.4807827140E-01
  9.2675585284E+03  1.8700620340E+00  4.8074916312E+00  2.8679558671E-02  2.8081376192E-02  4.5171736508E-01
  9.3645484950E+03  1.8928142864E+00  4.7928642722E+00  2.9545975399E-02  2.8916347272E-02  4.5533563637E-01
  9.4615384615E+03  1.9156572680E+00  4.7785304021E+00  3.0429175869E-02  2.9766794695E-02  4.5893316314E-01
  9.5585284281E+03  1.9385862376E+00  4.7644729305E+00  3.1329306588E-02  3.0632823030E-02  4.6251003014E-01
  9.6555183946E+03  1.9616410251E+00  4.7507522211E+00  3.2246513797E-02  3.1514550404E-02  4.6606632854E-01
  9.7525083612E+03  1.9847661553E+00  4.7372603361E+00  3.3180943481E-02  3.2412062669E-02  4.6960214874E-01
  9.8494983278E+03  2.0080188968E+00  4.7240864061E+00  3.4132741370E-02  3.3325482386E-02  4.7311751318E-01
  9.9464882943E+03  2.0313566322E+00  4.7111485942E+00  3.5102052941E-02  3.4254896743E-02  4.7661241956E-01
  1.0043478261E+04  2.0547962869E+00  4.6984674078E+00  3.6093396799E-02  3.5204573241E-02  4.8008687532E-01
  1.0140468227E+04  2.0783483210E+00  4.6860491464E+00  3.7108255729E-02  3.6175874496E-02  4.8354089562E-01
  1.0237458194E+04  2.1019787714E+00  4.6738358634E+00  3.8141524216E-02  3.7163884403E-02  4.8697450294E-01
  1.0334448161E+04  2.1257469724E+00  4.6619066772E+00  3.9193355608E-02  3.8168731193E-02  4.9038772669E-01
  1.0431438127E+04  2.1495778997E+00  4.6501467938E+00  4.0263903044E-02  3.9190487174E-02  4.9378060277E-01
  1.0528428094E+04  2.1735585249E+00  4.6386711699E+00  4.1353319454E-02  4.0229291485E-02  4.9715316966E-01
  1.0625418060E+04  2.1976054974E+00  4.6273583189E+00  4.2461757564E-02  4.1285208774E-02  5.0050542633E-01
  1.0722408027E+04  2.2217887033E+00  4.6162958902E+00  4.3589369896E-02  4.2358370299E-02  5.0383735373E-01
  1.0819397993E+04  2.2460529653E+00  4.6054049074E+00  4.4736308772E-02  4.3448849189E-02  5.0714894087E-01
  1.0916387960E+04  2.2704429902E+00  4.5947370479E+00  4.5902726313E-02  4.4556764331E-02  5.1044018401E-01
  1.1013377926E+04  2.2949255080E+00  4.5842443224E+00  4.7088774445E-02  4.5682195733E-02  5.1371108634E-01
  1.1110367893E+04  2.3195266157E+00  4.5739535640E+00  4.8294604896E-02  4.6825251845E-02  5.1696165759E-01
  1.1207357860E+04  2.3442280691E+00  4.5638369184E+00  4.9523372503E-02  4.7988837233E-02  5.2019191376E-01
  1.1304347826E+04  2.3690445477E+00  4.5539068602E+00  5.0780278482E-02  4.9177778988E-02  5.2340186227E-01
  1.1401337793E+04  2.3939653202E+00  4.5441454423E+00  5.2057882096E-02  5.0385023950E-02  5.2659148301E-01
  1.1498327759E+04  2.4190014807E+00  4.5345606679E+00  5.3356342490E-02  5.1610674781E-02  5.2976075945E-01
  1.1595317726E+04  2.4441416510E+00  4.5251348518E+00  5.4675818654E-02  5.2854819736E-02  5.3290968202E-01
  1.1692307692E+04  2.4694018260E+00  4.5158808545E+00  5.6016469419E-02  5.4117562377E-02  5.3603824781E-01
  1.1789297659E+04  2.4947611582E+00  4.5067721510E+00  5.7378453462E-02  5.5398982170E-02  5.3914646030E-01
  1.1886287625E+04  2.5202497008E+00  4.4978352660E+00  5.8761929305E-02  5.6699189718E-02  5.4223432906E-01
  1.1983277592E+04  2.5458276353E+00  4.4890262408E+00  6.0167055319E-02  5.8018248798E-02  5.4530185889E-01
  1.2080267559E+04  2.5715489174E+00  4.4803935829E+00  6.1593989723E-02  5.9356284628E-02  5.4834903602E-01
  1.2177257525E+04  2.5973445610E+00  4.4718677821E+00  6.3042890585E-02  6.0713336881E-02  5.5137585090E-01
  1.2274247492E+04  2.6233029721E+00  4.4635271895E+00  6.4513915826E-02  6.2089554562E-02  5.5438230053E-01
  1.2371237458E+04  2.6493150888E+00  4.4552690713E+00  6.6007223218E-02  6.3484943135E-02  5.5736838815E-01
  1.2468227425E+04  2.6755150431E+00  4.4472090654E+00  6.7522970387E-02  6.4899686352E-02  5.6033412301E-01
  1.2565217391E+04  2.7017680661E+00  4.4392259280E+00  6.9072055985E-02  6.6343673496E-02  5.6327952440E-01
  1.2662207358E+04  2.7281882709E+00  4.4314140486E+00  7.0649637181E-02  6.7812427334E-02  5.6620463759E-01
  1.2759197324E+04  2.7546886678E+00  4.4236971948E+00  7.2250746623E-02  6.9301221404E-02  5.6910945999E-01
  1.2856187291E+04  2.7813259984E+00  4.4161190083E+00  7.3875551273E-02  7.0810186486E-02  5.7199398422E-01
  1.2953177258E+04  2.8080791025E+00  4.4086594297E+00  7.5524217988E-02  7.2339388731E-02  5.7485820938E-01
  1.3050167224E+04  2.8349316335E+00  4.4013025233E+00  7.7196913517E-02  7.3888895164E-02  5.7770214077E-01
  1.3147157191E+04  2.8619428462E+00  4.3940917196E+00  7.8893804505E-02  7.5458839704E-02  5.8052578967E-01
  1.3244147157E+04  2.8890100469E+00  4.3869456006E+00  8.0615057491E-02  7.7049207369E-02  5.8332917312E-01
  1.3341137124E+04  2.9162829416E+00  4.3799741134E+00  8.2360838908E-02  7.8660216095E-02  5.8611231370E-01
  1.3438127090E+04  2.9436148266E+00  4.3730654619E+00  8.4131315089E-02  8.0291803281E-02  5.8887523930E-01
  1.3535117057E+04  2.9711019748E+00  4.3662875520E+00  8.5926652263E-02  8.1944136891E-02  5.9161798293E-01
  1.3632107023E+04  2.9987040421E+00  4.3596088773E+00  8.7747016555E-02  8.3617251304E-02  5.9434058246E-01
  1.3729096990E+04  3.0264020575E+00  4.3530138112E+00  8.9593159724E-02  8.5311729065E-02  5.9704308052E-01
  1.3826086957E+04  3.0542798325E+00  4.3465579918E+00  9.1465688116E-02  8.7028126221E-02  5.9972551593E-01
  1.3923076923E+04  3.0822168317E+00  4.3401567762E+00  9.3363791020E-02  8.8765495636E-02  6.0238790346E-01
  1.4020066890E+04  3.1103438428E+00  4.3338957099E+00  9.5287634755E-02  9.0524048878E-02  6.0503025745E-01
  1.4117056856E+04  3.1385633463E+00  4.3277078661E+00  9.7237385545E-02  9.2303744818E-02  6.0765259811E-01
  1.4214046823E+04  3.1668972061E+00  4.3216056491E+00  9.9213209515E-02  9.4104672048E-02  6.1025495125E-01
  1.4311036789E+04  3.1954048211E+00  4.3156248623E+00  1.0121527269E-01  9.5926965652E-02  6.1283734814E-01
  1.4408026756E+04  3.2239739020E+00  4.3096926656E+00  1.0324374101E-01  9.7770552833E-02  6.1539982524E-01
  1.4505016722E+04  3.2527418784E+00  4.3038923480E+00  1.0529878031E-01  9.9635663025E-02  6.1794242402E-01
  1.4602006689E+04  3.2816060154E+00  4.2981587928E+00  1.0738055632E-01  1.0152222905E-01  6.2046519078E-01
  1.4698996656E+04  3.3105745896E+00  4.2924955180E+00  1.0948923470E-01  1.0343031713E-01  6.2296817643E-01
  1.4795986622E+04  3.3397394618E+00  4.2869549820E+00  1.1162498099E-01  1.0536010569E-01  6.2545143633E-01
  1.4892976589E+04  3.3689681906E+00  4.2814577282E+00  1.1378796067E-01  1.0731147342E-01  6.2791502658E-01
  1.4989966555E+04  3.3983735846E+00  4.2760672638E+00  1.1597833910E-01  1.0928462663E-01  6.3035898710E-01
  1.5086956522E+04  3.4279098571E+00  4.2707555398E+00  1.1821910006E-01  1.1129978190E-01  6.3278335648E-01
  1.5183946488E+04  3.4575110975E+00  4.2654843893E+00  1.2049099819E-01  1.1333961303E-01  6.3518817857E-01
  1.5280936455E+04  3.4873538104E+00  4.2603510580E+00  1.2279161891E-01  1.1540213289E-01  6.3757350212E-01
  1.5377926421E+04  3.5172668138E+00  4.2552585010E+00  1.2512113862E-01  1.1748714289E-01  6.3993938066E-01
  1.5474916388E+04  3.5472961171E+00  4.2502316104E+00  1.2747973368E-01  1.1959476105E-01  6.4228587223E-01
  1.5571906355E+04  3.5775221878E+00  4.2453130555E+00  1.2986758037E-01  1.2172516511E-01  6.4461303927E-01
  1.5668896321E+04  3.6078157323E+00  4.2404306801E+00  1.3228485494E-01  1.2387819811E-01  6.4692094837E-01
  1.5765886288E+04  3.6382725292E+00  4.2356360321E+00  1.3473173357E-01  1.2605406126E-01  6.4920967013E-01
  1.5862876254E+04  3.6688817309E+00  4.2309214819E+00  1.3720839239E-01  1.2825278443E-01  6.5147927891E-01
  1.5959866221E+04  3.6995595134E+00  4.2262408697E+00  1.3971500750E-01  1.3047426668E-01  6.5372984421E-01
  1.6056856187E+04  3.7304390058E+00  4.2216649610E+00  1.4225175491E-01  1.3271878193E-01  6.5596142501E-01
  1.6153846154E+04  3.7614349434E+00  4.2171463733E+00  1.4481881061E-01  1.3498622210E-01  6.5817408348E-01
  1.6250836120E+04  3.7925005637E+00  4.2126596278E+00  1.4741635053E-01  1.3727653690E-01  6.6036788616E-01
  1.6347826087E+04  3.8237976772E+00  4.2082896088E+00  1.5004455054E-01  1.3959006579E-01  6.6254290371E-01
  1.6444816054E+04  3.8551838600E+00  4.2039594342E+00  1.5270358646E-01  1.4192657775E-01  6.6469921078E-01
  1.6541806020E+04  3.8866424995E+00  4.1996600183E+00  1.5539363407E-01  1.4428606866E-01  6.6683688584E-01
  1.6638795987E+04  3.9183502142E+00  4.1954827642E+00  1.5811486910E-01  1.4666892319E-01  6.6895601093E-01
  1.6735785953E+04  3.9501300568E+00  4.1913339081E+00  1.6086746721E-01  1.4907481847E-01  6.7105667159E-01
  1.6832775920E+04  3.9819942267E+00  4.1872195299E+00  1.6365160403E-01  1.5150380212E-01  6.7313895597E-01
  1.6929765886E+04  4.0140978378E+00  4.1832186727E+00  1.6646745513E-01  1.5395623127E-01  6.7520294041E-01
  1.7026755853E+04  4.0462746609E+00  4.1792444610E+00  1.6931519604E-01  1.5643177795E-01  6.7724870156E-01
  1.7123745819E+04  4.0785385888E+00  4.1753037801E+00  1.7219500224E-01  1.5893049011E-01  6.7927632238E-01
  1.7220735786E+04  4.1110413287E+00  4.1714729269E+00  1.7510704915E-01  1.6145273311E-01  6.8128588929E-01
  1.7317725753E+04  4.1436183604E+00  4.1676670746E+00  1.7805151214E-01  1.6399815574E-01  6.8327749201E-01
  1.7414715719E+04  4.1762760279E+00  4.1638892399E+00  1.8102856655E-01  1.6656678465E-01  6.8525122343E-01
  1.7511705686E+04  4.2091810244E+00  4.1602223583E+00  1.8404118904E-01  1.6916140378E-01  6.8720717939E-01
  1.7608695652E+04  4.2421613880E+00  4.1565789326E+00  1.8710752331E-01  1.7179674993E-01  6.8914545854E-01
  1.7705685619E+04  4.2752168748E+00  4.1529586848E+00  1.9020762234E-01  1.7445578880E-01  6.9106616222E-01
  1.7802675585E+04  4.3085166979E+00  4.1494448619E+00  1.9334166900E-01  1.7713896512E-01  6.9297042326E-01
  1.7899665552E+04  4.3419032954E+00  4.1459581820E+00  1.9650984614E-01  1.7984589215E-01  6.9485973970E-01
  1.7996655518E+04  4.3753660894E+00  4.1424932500E+00  1.9971233659E-01  1.8257654631E-01  6.9673416814E-01
  1.8093645485E+04  4.4090474164E+00  4.1391192284E+00  2.0294932316E-01  1.8533131938E-01  6.9859375870E-01
  1.8190635452E+04  4.4428429767E+00  4.1357838819E+00  2.0622098861E-01  1.8810994036E-01  7.0043856425E-01
  1.8287625418E+04  4.4767158005E+00  4.1324689380E+00  2.0952751570E-01  1.9091230760E-01  7.0226864029E-01
  1.8384615385E+04  4.5107717100E+00  4.1292251905E+00  2.1286908716E-01  1.9373872445E-01  7.0408404485E-01
  1.8481605351E+04  4.5449788621E+00  4.1260360606E+00  2.1624588568E-01  1.9658910692E-01  7.0588483839E-01
  1.8578595318E+04  4.5792643380E+00  4.1228660671E+00  2.1965809395E-01  1.9946323959E-01  7.0767108369E-01
  1.8675585284E+04  4.6136877269E+00  4.1197434478E+00  2.2310589461E-01  2.0236129622E-01  7.0944284574E-01
  1.8772575251E+04  4.6483090013E+00  4.1166956942E+00  2.2659269152E-01  2.0528610623E-01  7.1120019164E-01
  1.8869565217E+04  4.6830096534E+00  4.1136658838E+00  2.3011718790E-01  2.0823606926E-01  7.1294319050E-01
  1.8966555184E+04  4.7177932469E+00  4.1106556028E+00  2.3367794872E-01  2.1120985072E-01  7.1467191336E-01
  1.9063545151E+04  4.7528310764E+00  4.1077446422E+00  2.3727515788E-01  2.1420800030E-01  7.1638643308E-01
  1.9160535117E+04  4.7879493311E+00  4.1048504999E+00  2.4090899923E-01  2.1722994549E-01  7.1808682425E-01
  1.9257525084E+04  4.8231477869E+00  4.1019729945E+00  2.4457965663E-01  2.2027566597E-01  7.1977316311E-01
  1.9354515050E+04  4.8585424141E+00  4.0991655879E+00  2.4828731389E-01  2.2334554426E-01  7.2144552744E-01
  1.9451505017E+04  4.8940806004E+00  4.0964028341E+00  2.5203215483E-01  2.2643939039E-01  7.2310399601E-01
  1.9548494983E+04  4.9297000320E+00  4.0936556700E+00  2.5581436322E-01  2.2955696594E-01  7.2474863853E-01
  1.9645484950E+04  4.9654399973E+00  4.0909419837E+00  2.5963412283E-01  2.3269838857E-01  7.2637951709E-01
  1.9742474916E+04  5.0014003480E+00  4.0883065585E+00  2.6349161739E-01  2.3586400933E-01  7.2799669566E-01
  1.9839464883E+04  5.0374429815E+00  4.0856857340E+00  2.6738703062E-01  2.3905329874E-01  7.2960024038E-01
  1.9936454849E+04  5.0735676825E+00  4.0830793587E+00  2.7132054623E-01  2.4226622406E-01  7.3119021941E-01
  2.0033444816E+04  5.1099053664E+00  4.0805460290E+00  2.7530102162E-01  2.4551016413E-01  7.3276670285E-01
  2.0130434783E+04  5.1463736563E+00  4.0780477162E+00  2.7933686518E-01  2.4879125025E-01  7.3432976264E-01
  2.0227424749E+04  5.1829250506E+00  4.0755629302E+00  2.8341198960E-01  2.5209628423E-01  7.3587947249E-01
  2.0324414716E+04  5.2195928605E+00  4.0731062004E+00  2.8752658531E-01  2.5542536514E-01  7.3741590774E-01
  2.0421404682E+04  5.2564909948E+00  4.0707266087E+00  2.9168084272E-01  2.5877893530E-01  7.3893914533E-01
  2.0518394649E+04  5.2934732836E+00  4.0683596723E+00  2.9587495228E-01  2.6215636098E-01  7.4044926363E-01
  2.0615384615E+04  5.3305395196E+00  4.0660052646E+00  3.0010910439E-01  2.6555759802E-01  7.4194634245E-01
  2.0712374582E+04  5.3677951629E+00  4.0637079032E+00  3.0438348949E-01  2.6898306127E-01  7.4343046287E-01
  2.0809364548E+04  5.4052131613E+00  4.0614552071E+00  3.0869829799E-01  2.7243260445E-01  7.4490170722E-01
  2.0906354515E+04  5.4427161789E+00  4.0592142262E+00  3.1305372030E-01  2.7590584676E-01  7.4636015897E-01
  2.1003344482E+04  5.4803040133E+00  4.0569848457E+00  3.1744994686E-01  2.7940273694E-01  7.4780590225E-01
  2.1100334448E+04  5.5181450334E+00  4.0548357580E+00  3.2188716807E-01  2.8292399995E-01  7.4923901526E-01
  2.1197324415E+04  5.5560896619E+00  4.0527048117E+00  3.2636557435E-01  2.8646891505E-01  7.5065957249E-01
  2.1294314381E+04  5.5941202010E+00  4.0505847058E+00  3.3088535612E-01  2.9003734629E-01  7.5206764989E-01
  2.1391304348E+04  5.6322686372E+00  4.0484881271E+00  3.3544670378E-01  2.9362939020E-01  7.5346332480E-01
  2.1488294314E+04  5.6706596980E+00  4.0464639829E+00  3.4004980774E-01  2.9724560251E-01  7.5484667587E-01
  2.1585284281E+04  5.7091377819E+00  4.0444499596E+00  3.4469485842E-01  3.0088518512E-01  7.5621778300E-01
  2.1682274247E+04  5.7477026938E+00  4.0424459614E+00  3.4938204622E-01  3.0454807485E-01  7.5757672723E-01
  2.1779264214E+04  5.7864253839E+00  4.0404792353E+00  3.5411156154E-01  3.0823456765E-01  7.5892359065E-01
  2.1876254181E+04  5.8253558427E+00  4.0385682501E+00  3.5888359479E-01  3.1194486971E-01  7.6025845638E-01
  2.1973244147E+04  5.8643742636E+00  4.0366666166E+00  3.6369833638E-01  3.1567831435E-01  7.6158140845E-01
  2.2070234114E+04  5.9034804559E+00  4.0347742479E+00  3.6855597669E-01  3.1943483167E-01  7.6289253173E-01
  2.2167224080E+04  5.9427728173E+00  4.0329277138E+00  3.7345670614E-01  3.2321487702E-01  7.6419191191E-01
  2.2264214047E+04  5.9822495835E+00  4.0311255743E+00  3.7840071512E-01  3.2701838958E-01  7.6547963536E-01
  2.2361204013E+04  6.0218152767E+00  4.0293320686E+00  3.8338839964E-01  3.3084494519E-01  7.6675578912E-01
  2.2458193980E+04  6.0614697103E+00  4.0275471180E+00  3.8845954685E-01  3.3472386606E-01  7.6802046040E-01
  2.2555183946E+04  6.1013264022E+00  4.0258115642E+00  3.9357542287E-01  3.3862663570E-01  7.6927373130E-01
  2.2652173913E+04  6.1413564360E+00  4.0241142116E+00  3.9873622661E-01  3.4255303543E-01  7.7051568118E-01
  2.2749163880E+04  6.1814763874E+00  4.0224248222E+00  4.0394215697E-01  3.4650252160E-01  7.7174639030E-01
  2.2846153846E+04  6.2216860736E+00  4.0207433248E+00  4.0919341287E-01  3.5047501098E-01  7.7296593977E-01
  2.2943143813E+04  6.2621009748E+00  4.0191099560E+00  4.1449019328E-01  3.5447110264E-01  7.7417441146E-01
  2.3040133779E+04  6.3026912845E+00  4.0175135671E+00  4.1983269714E-01  3.5849055866E-01  7.7537188797E-01
  2.3137123746E+04  6.3433725277E+00  4.0159245144E+00  4.2522112345E-01  3.6253279890E-01  7.7655845256E-01
  2.3234113712E+04  6.3841445256E+00  4.0143427337E+00  4.3065567122E-01  3.6659773365E-01  7.7773418906E-01
  2.3331103679E+04  6.4251107118E+00  4.0128031416E+00  4.3613653945E-01  3.7068591484E-01  7.7889918185E-01
  2.3428093645E+04  6.4662683507E+00  4.0113041113E+00  4.4166392720E-01  3.7479725737E-01  7.8005351574E-01
  2.3525083612E+04  6.5075179641E+00  4.0098118305E+00  4.4723803353E-01  3.7893105808E-01  7.8119727601E-01
  2.3622073579E+04  6.5488593772E+00  4.0083262413E+00  4.5285905750E-01  3.8308722106E-01  7.8233054827E-01
  2.3719063545E+04  6.5903690985E+00  4.0068723777E+00  4.5852719823E-01  3.8726614785E-01  7.8345341844E-01
  2.3816053512E+04  6.6321011618E+00  4.0054673032E+00  4.6424265482E-01  3.9146811455E-01  7.8456597240E-01
  2.3913043478E+04  6.6739262658E+00  4.0040684289E+00  4.7000562640E-01  3.9569219050E-01  7.8566829198E-01
  2.4010033445E+04  6.7158442394E+00  4.0026757024E+00  4.7581631213E-01  3.9993827377E-01  7.8676045645E-01
  2.4107023411E+04  6.7578888969E+00  4.0012998543E+00  4.8167491118E-01  4.0420649239E-01  7.8784254555E-01
  2.4204013378E+04  6.8002025188E+00  3.9999855206E+00  4.8758162273E-01  4.0849773175E-01  7.8891463952E-01
  2.4301003344E+04  6.8426102726E+00  3.9986768722E+00  4.9353664598E-01  4.1281070940E-01  7.8997681897E-01
  2.4397993311E+04  6.8851119906E+00  3.9973738622E+00  4.9954018017E-01  4.1714531766E-01  7.9102916491E-01
  2.4494983278E+04  6.9277075063E+00  3.9960764438E+00  5.0559242452E-01  4.2150144725E-01  7.9207175864E-01
  2.4591973244E+04  6.9705844638E+00  3.9948419959E+00  5.1169357830E-01  4.2588034106E-01  7.9310468173E-01
  2.4688963211E+04  7.0135820623E+00  3.9936205652E+00  5.1784384078E-01  4.3028076211E-01  7.9412801596E-01
  2.4785953177E+04  7.0566747445E+00  3.9924042948E+00  5.2404341125E-01  4.3470241625E-01  7.9514184328E-01
  2.4882943144E+04  7.0998623474E+00  3.9911931427E+00  5.3029248903E-01  4.3914518876E-01  7.9614624577E-01
  2.4979933110E+04  7.1432572990E+00  3.9900207434E+00  5.3659127343E-01  4.4360981390E-01  7.9714130558E-01
  2.5076923077E+04  7.1868501519E+00  3.9888836553E+00  5.4297148576E-01  4.4811760227E-01  7.9812710488E-01
  2.5173913043E+04  7.2305392175E+00  3.9877512788E+00  5.4941073594E-01  4.5265212262E-01  7.9910372347E-01
  2.5270903010E+04  7.2743243364E+00  3.9866235764E+00  5.5590108859E-01  4.5720768917E-01  8.0007123783E-01
  2.5367892977E+04  7.3182245040E+00  3.9855064334E+00  5.6244275014E-01  4.6178433502E-01  8.0102972450E-01
  2.5464882943E+04  7.3624058204E+00  3.9844507874E+00  5.6903592704E-01  4.6638330828E-01  8.0197926020E-01
  2.5561872910E+04  7.4066843883E+00  3.9833994326E+00  5.7568082578E-01  4.7100300624E-01  8.0291992185E-01
  2.5658862876E+04  7.4510600517E+00  3.9823523352E+00  5.8237765289E-01  4.7564330255E-01  8.0385178650E-01
  2.5755852843E+04  7.4955326552E+00  3.9813094620E+00  5.8912661492E-01  4.8030406947E-01  8.0477493126E-01
  2.5852842809E+04  7.5402125887E+00  3.9803069362E+00  5.9592791846E-01  4.8498617196E-01  8.0568943332E-01
  2.5949832776E+04  7.5850681640E+00  3.9793338074E+00  6.0278177011E-01  4.8968922517E-01  8.0659536987E-01
  2.6046822742E+04  7.6300217454E+00  3.9783645455E+00  6.0968837655E-01  4.9441240862E-01  8.0749281809E-01
  2.6143812709E+04  7.6750731807E+00  3.9773991209E+00  6.1664794445E-01  4.9915558974E-01  8.0838185510E-01
  2.6240802676E+04  7.7202226822E+00  3.9764376320E+00  6.2366068054E-01  5.0391863824E-01  8.0926255793E-01
  2.6337792642E+04  7.7656419563E+00  3.9755400741E+00  6.3072679155E-01  5.0870313934E-01  8.1013500245E-01
  2.6434782609E+04  7.8111600144E+00  3.9746460169E+00  6.3784648428E-01  5.1350728329E-01  8.1099926030E-01
  2.6531772575E+04  7.8567767077E+00  3.9737554340E+00  6.4501996554E-01  5.1833093300E-01  8.1185540448E-01
  2.6628762542E+04  7.9024918883E+00  3.9728682993E+00  6.5224744217E-01  5.2317395012E-01  8.1270350819E-01
  2.6725752508E+04  7.9483580997E+00  3.9720045855E+00  6.5952912105E-01  5.2803678105E-01  8.1354364460E-01
  2.6822742475E+04  7.9944264106E+00  3.9711832318E+00  6.6686520909E-01  5.3291987907E-01  8.1437588681E-01
  2.6919732441E+04  8.0405940047E+00  3.9703650116E+00  6.7425591324E-01  5.3782197301E-01  8.1520030760E-01
  2.7016722408E+04  8.0868607369E+00  3.9695499018E+00  6.8170144046E-01  5.4274292037E-01  8.1601697829E-01
  2.7113712375E+04  8.1332264632E+00  3.9687378795E+00  6.8920199776E-01  5.4768257746E-01  8.1682596997E-01
  2.7210702341E+04  8.1797737384E+00  3.9679633037E+00  6.9675779218E-01  5.5264184390E-01  8.1762727688E-01
  2.7307692308E+04  8.2264771119E+00  3.9672150872E+00  7.0436903077E-01  5.5762028330E-01  8.1842136306E-01
  2.7404682274E+04  8.2732801407E+00  3.9664696638E+00  7.1203598152E-01  5.6261708360E-01  8.1921053279E-01
  2.7501672241E+04  8.3201826837E+00  3.9657270132E+00  7.1975905098E-01  5.6763222093E-01  8.1999572661E-01
  2.7598662207E+04  8.3671846004E+00  3.9649871154E+00  7.2753819173E-01  5.7266538716E-01  8.2077696710E-01
  2.7695652174E+04  8.4143796340E+00  3.9642934791E+00  7.3537361099E-01  5.7771779969E-01  8.2155427940E-01
  2.7792642140E+04  8.4617029610E+00  3.9636155143E+00  7.4326551603E-01  5.8278839839E-01  8.2232768871E-01
  2.7889632107E+04  8.5091261881E+00  3.9629400266E+00  7.5121411414E-01  5.8787662507E-01  8.2309722003E-01
  2.7986622074E+04  8.5566491776E+00  3.9622669985E+00  7.5921961266E-01  5.9298232776E-01  8.2386289816E-01
  2.8083612040E+04  8.6042717925E+00  3.9615964125E+00  7.6728221893E-01  5.9810535353E-01  8.2462474767E-01
  2.8180602007E+04  8.6520839433E+00  3.9609759256E+00  7.7540214034E-01  6.0324709205E-01  8.2538279296E-01
  2.8277591973E+04  8.7000110009E+00  3.9603654946E+00  7.8357958430E-01  6.0840614551E-01  8.2613705822E-01
  2.8374581940E+04  8.7480380754E+00  3.9597572473E+00  7.9181475827E-01  6.1358210845E-01  8.2688756743E-01
  2.8471571906E+04  8.7961650325E+00  3.9591511685E+00  8.0010786971E-01  6.1877482493E-01  8.2763434438E-01
  2.8568561873E+04  8.8443917386E+00  3.9585472431E+00  8.0845912613E-01  6.2398413811E-01  8.2837741269E-01
  2.8665551839E+04  8.8927933579E+00  3.9579924968E+00  8.1686873506E-01  6.2921145612E-01  8.2911679576E-01
  2.8762541806E+04  8.9413068327E+00  3.9574470366E+00  8.2533690406E-01  6.3445534588E-01  8.2985251682E-01
  2.8859531773E+04  8.9899203130E+00  3.9569034875E+00  8.3386384073E-01  6.3971540745E-01  8.3058459891E-01
  2.8956521739E+04  9.0386336678E+00  3.9563618364E+00  8.4244975269E-01  6.4499148137E-01  8.3131306487E-01
  2.9053511706E+04  9.0874467667E+00  3.9558220702E+00  8.5109484759E-01  6.5028340742E-01  8.3203793737E-01
  2.9150501672E+04  9.1364135319E+00  3.9553260111E+00  8.5979933311E-01  6.5559245226E-01  8.3275923891E-01
  2.9247491639E+04  9.1854950453E+00  3.9548431025E+00  8.6856341696E-01  6.6091746205E-01  8.3347699179E-01
  2.9344481605E+04  9.2346764248E+00  3.9543618514E+00  8.7738730687E-01  6.6625788917E-01  8.3419121815E-01
  2.9441471572E+04  9.2839575425E+00  3.9538822465E+00  8.8627121061E-01  6.7161357115E-01  8.3490193994E-01
  2.9538461538E+04  9.3333382712E+00  3.9534042769E+00  8.9521533598E-01  6.7698434484E-01  8.3560917896E-01
  2.9635451505E+04  9.3828495365E+00  3.9529601842E+00  9.0421989079E-01  6.8237117178E-01  8.3631295680E-01
  2.9732441472E+04  9.4324796963E+00  3.9525375409E+00  9.1328508290E-01  6.8777349943E-01  8.3701329560E-01
  2.9829431438E+04  9.4822094553E+00  3.9521163191E+00  9.2241112019E-01  6.9319047551E-01  8.3771021816E-01
  2.9926421405E+04  9.5320386884E+00  3.9516965093E+00  9.3159821057E-01  6.9862193500E-01  8.3840374668E-01
  3.0023411371E+04  9.5819672714E+00  3.9512781022E+00  9.4086456587E-01  7.0407779456E-01  8.3909390313E-01
  3.0120401338E+04  9.6320093164E+00  3.9508795576E+00  9.5024974486E-01  7.0958037516E-01  8.3978070930E-01
  3.0217391304E+04  9.6821758725E+00  3.9505149916E+00  9.5969784991E-01  7.1509850176E-01  8.4046418679E-01
  3.0314381271E+04  9.7324416921E+00  3.9501516275E+00  9.6920909829E-01  7.2063082820E-01  8.4114435701E-01
  3.0411371237E+04  9.7828066529E+00  3.9497894573E+00  9.7878370731E-01  7.2617718391E-01  8.4182124117E-01
  3.0508361204E+04  9.8332706334E+00  3.9494284733E+00  9.8842189434E-01  7.3173739781E-01  8.4249486031E-01
  3.0605351171E+04  9.8838341736E+00  3.9490693513E+00  9.9812387679E-01  7.3731132583E-01  8.4316523527E-01
  3.0702341137E+04  9.9345444778E+00  3.9487607300E+00  1.0078898721E+00  7.4290078360E-01  8.4383238674E-01
  3.0799331104E+04  9.9853537832E+00  3.9484531060E+00  1.0177200978E+00  7.4850363629E-01  8.4449633519E-01
  3.0896321070E+04  1.0036261970E+01  3.9481464731E+00  1.0276147714E+00  7.5411971163E-01  8.4515710095E-01
  3.0993311037E+04  1.0087268921E+01  3.9478408250E+00  1.0375741105E+00  7.5974883692E-01  8.4581470416E-01
  3.1090301003E+04  1.0138374516E+01  3.9475361554E+00  1.0475983328E+00  7.6539083907E-01  8.4646916477E-01
  3.1187290970E+04  1.0189613614E+01  3.9472605712E+00  1.0576876558E+00  7.7104681761E-01  8.4712050260E-01
