#[MATERIAL DEFINITION FOR MC-GPU: interaction mean free path and sampling data from PENELOPE 2006]
#[MATERIAL NAME]
# Marrow_Bone15_27                                              
#[NOMINAL DENSITY (g/cm^3)]
#   1.94643000
#[NUMBER OF DATA VALUES]
#   1495
#[MEAN FREE PATHS (cm) (ie, average distance between interactions)]
#[Energy (eV)     | Rayleigh        | Compton         | Photoelectric   | TOTAL (+pair prod) (cm) | Rayleigh: max cumul prob F^2]
  5.0000000000E+03  5.9292703290E-01  5.1486047789E+00  2.7013430677E-03  2.6876879466E-03  2.5399608830E-01
  5.0969899666E+03  6.0367208579E-01  5.0946838323E+00  2.8450507934E-03  2.8301321963E-03  2.5888784453E-01
  5.1939799331E+03  6.1448771309E-01  5.0430309031E+00  2.9934549382E-03  2.9771844857E-03  2.6373771467E-01
  5.2909698997E+03  6.2537293763E-01  4.9935116193E+00  3.1466159604E-03  3.1289009862E-03  2.6854682603E-01
  5.3879598662E+03  6.3632674383E-01  4.9460014336E+00  3.3045939299E-03  3.2853373559E-03  2.7331622815E-01
  5.4849498328E+03  6.4734808207E-01  4.9003847486E+00  3.4674856722E-03  3.4465854350E-03  2.7804690001E-01
  5.5819397993E+03  6.5843587284E-01  4.8565541345E+00  3.6357609710E-03  3.6131051950E-03  2.8273983194E-01
  5.6789297659E+03  6.6958901080E-01  4.8144096263E+00  3.8090654593E-03  3.7845422235E-03  2.8739600877E-01
  5.7759197324E+03  6.8080636869E-01  4.7738580939E+00  3.9874585966E-03  3.9609509861E-03  2.9201630619E-01
  5.8729096990E+03  6.9208680104E-01  4.7348126739E+00  4.1709994943E-03  4.1423854625E-03  2.9660156213E-01
  5.9698996656E+03  7.0342914957E-01  4.6971922554E+00  4.3597469229E-03  4.3288991522E-03  3.0115262428E-01
  6.0668896321E+03  7.1483233471E-01  4.6609208785E+00  4.5541543464E-03  4.5209343676E-03  3.0567028602E-01
  6.1638795987E+03  7.2629551282E-01  4.6259270959E+00  4.7540948608E-03  4.7183609110E-03  3.1015525173E-01
  6.2608695652E+03  7.3781805800E-01  4.5921436672E+00  4.9602511527E-03  4.9218458653E-03  3.1460822788E-01
  6.3578595318E+03  7.4939933618E-01  4.5595075862E+00  5.1743013438E-03  5.1330346403E-03  3.1902994296E-01
  6.4548494983E+03  7.6104274718E-01  4.5279865001E+00  5.3941145584E-03  5.3498229584E-03  3.2342099128E-01
  6.5518394649E+03  7.7274871123E-01  4.4975301712E+00  5.6208200034E-03  5.5733155275E-03  3.2778188897E-01
  6.6488294314E+03  7.8451242215E-01  4.4680586547E+00  5.8538918403E-03  5.8029881085E-03  3.3211316414E-01
  6.7458193980E+03  7.9633313129E-01  4.4395226842E+00  6.0930219716E-03  6.0385314841E-03  3.3641535543E-01
  6.8428093645E+03  8.0821006730E-01  4.4118759376E+00  6.3382766420E-03  6.2800044635E-03  3.4068901076E-01
  6.9397993311E+03  8.2014243837E-01  4.3850748294E+00  6.5897218438E-03  6.5274654113E-03  3.4493465323E-01
  7.0367892977E+03  8.3212990664E-01  4.3590810181E+00  6.8478751541E-03  6.7814153916E-03  3.4915265729E-01
  7.1337792642E+03  8.4418606226E-01  4.3339346769E+00  7.1131391781E-03  7.0422428184E-03  3.5334336948E-01
  7.2307692308E+03  8.5629674600E-01  4.3095189296E+00  7.3848634430E-03  7.3093013196E-03  3.5750714783E-01
  7.3277591973E+03  8.6846133909E-01  4.2857988233E+00  7.6631146404E-03  7.5826490241E-03  3.6164436032E-01
  7.4247491639E+03  8.8067917811E-01  4.2627414220E+00  7.9479592310E-03  7.8623436174E-03  3.6575538350E-01
  7.5217391304E+03  8.9295831999E-01  4.2403583083E+00  8.2394634491E-03  8.1484432283E-03  3.6984054580E-01
  7.6187290970E+03  9.0530146342E-01  4.2186321762E+00  8.5376933056E-03  8.4410051385E-03  3.7390008336E-01
  7.7157190635E+03  9.1769704498E-01  4.1974808800E+00  8.8427145922E-03  8.7400846856E-03  3.7793423432E-01
  7.8127090301E+03  9.3014424830E-01  4.1768781344E+00  9.1545928838E-03  9.0457378084E-03  3.8194324672E-01
  7.9096989967E+03  9.4265651560E-01  4.1568608613E+00  9.4733935430E-03  9.3580217233E-03  3.8592737757E-01
  8.0066889632E+03  9.5522990029E-01  4.1373868092E+00  9.7995846670E-03  9.6773842711E-03  3.8988687274E-01
  8.1036789298E+03  9.6785379859E-01  4.1183901543E+00  1.0138446270E-02  1.0008961007E-02  3.9382190316E-01
  8.2006688963E+03  9.8053190379E-01  4.0998680816E+00  1.0484763967E-02  1.0347654678E-02  3.9773262944E-01
  8.2976588629E+03  9.9328320290E-01  4.0818740720E+00  1.0838610108E-02  1.0693528805E-02  4.0161922167E-01
  8.3946488294E+03  1.0060839840E+00  4.0642962570E+00  1.1200056871E-02  1.1046640611E-02  4.0548185850E-01
  8.4916387960E+03  1.0189342245E+00  4.0471204195E+00  1.1569176261E-02  1.1407049997E-02  4.0932071056E-01
  8.5886287625E+03  1.0318637914E+00  4.0304357802E+00  1.1946040119E-02  1.1774821199E-02  4.1313589435E-01
  8.6856187291E+03  1.0448415199E+00  4.0141146190E+00  1.2330720118E-02  1.2150008635E-02  4.1692752161E-01
  8.7826086957E+03  1.0578702171E+00  3.9981547677E+00  1.2723287769E-02  1.2532671387E-02  4.2069571274E-01
  8.8795986622E+03  1.0709777120E+00  3.9826314577E+00  1.3123814420E-02  1.2922872640E-02  4.2444059748E-01
  8.9765886288E+03  1.0841317149E+00  3.9674261283E+00  1.3532371262E-02  1.3320664741E-02  4.2816231950E-01
  9.0735785953E+03  1.0973450481E+00  3.9525678694E+00  1.3951223027E-02  1.3728231571E-02  4.3186094669E-01
  9.1705685619E+03  1.1106295722E+00  3.9380772744E+00  1.4379072321E-02  1.4144304189E-02  4.3553653200E-01
  9.2675585284E+03  1.1239587475E+00  3.9238654525E+00  1.4815312100E-02  1.4568276959E-02  4.3918913731E-01
  9.3645484950E+03  1.1373635371E+00  3.9100085863E+00  1.5260015921E-02  1.5000214943E-02  4.4281883288E-01
  9.4615384615E+03  1.1508242022E+00  3.8964392149E+00  1.5713257199E-02  1.5440172451E-02  4.4642569676E-01
  9.5585284281E+03  1.1643374791E+00  3.8831404152E+00  1.6175109211E-02  1.5888206566E-02  4.5000981427E-01
  9.6555183946E+03  1.1779309181E+00  3.8701709524E+00  1.6645645097E-02  1.6344381088E-02  4.5357127750E-01
  9.7525083612E+03  1.1915660610E+00  3.8574252783E+00  1.7124937859E-02  1.6808744132E-02  4.5711017954E-01
  9.8494983278E+03  1.2052824904E+00  3.8449902511E+00  1.7613060365E-02  1.7281361848E-02  4.6062656071E-01
  9.9464882943E+03  1.2190506971E+00  3.8327858400E+00  1.8110085352E-02  1.7762283206E-02  4.6412044222E-01
  1.0043478261E+04  1.2328823723E+00  3.8208319018E+00  1.8618390571E-02  1.8253782632E-02  4.6759185447E-01
  1.0140468227E+04  1.2467845537E+00  3.8091342675E+00  1.9138751980E-02  1.8756587914E-02  4.7104083550E-01
  1.0237458194E+04  1.2607339670E+00  3.7976362926E+00  1.9668473862E-02  1.9268084077E-02  4.7446743050E-01
  1.0334448161E+04  1.2747709898E+00  3.7864143613E+00  2.0207632983E-02  1.9788340806E-02  4.7787169143E-01
  1.0431438127E+04  1.2888444435E+00  3.7753569213E+00  2.0756306000E-02  2.0317400866E-02  4.8125367661E-01
  1.0528428094E+04  1.3030133160E+00  3.7645747254E+00  2.1314569458E-02  2.0855339351E-02  4.8461344751E-01
  1.0625418060E+04  1.3172210016E+00  3.7539502184E+00  2.1882499792E-02  2.1402195597E-02  4.8795103460E-01
  1.0722408027E+04  1.3315146910E+00  3.7435674596E+00  2.2460173332E-02  2.1958041046E-02  4.9126645383E-01
  1.0819397993E+04  1.3458570488E+00  3.7333502466E+00  2.3047666298E-02  2.2522919366E-02  4.9455972859E-01
  1.0916387960E+04  1.3602781134E+00  3.7233478299E+00  2.3645054805E-02  2.3096896226E-02  4.9783088909E-01
  1.1013377926E+04  1.3747554185E+00  3.7135139604E+00  2.4252414863E-02  2.3680018816E-02  5.0107997201E-01
  1.1110367893E+04  1.3893064176E+00  3.7038740111E+00  2.4869822379E-02  2.4272347998E-02  5.0430702014E-01
  1.1207357860E+04  1.4039187761E+00  3.6944010903E+00  2.5498935956E-02  2.4875439661E-02  5.0751208208E-01
  1.1304347826E+04  1.4186022706E+00  3.6851068559E+00  2.6142491212E-02  2.5491876389E-02  5.1069520005E-01
  1.1401337793E+04  1.4333496152E+00  3.6759739240E+00  2.6796561759E-02  2.6117895738E-02  5.1385639342E-01
  1.1498327759E+04  1.4481681668E+00  3.6670096850E+00  2.7461227301E-02  2.6753556699E-02  5.1699568476E-01
  1.1595317726E+04  1.4630502533E+00  3.6581971079E+00  2.8136567458E-02  2.7398911539E-02  5.2011310300E-01
  1.1692307692E+04  1.4780064249E+00  3.6495480977E+00  2.8822661766E-02  2.8054019859E-02  5.2320868309E-01
  1.1789297659E+04  1.4930228275E+00  3.6410374681E+00  2.9519589676E-02  2.8718930029E-02  5.2628246576E-01
  1.1886287625E+04  1.5081191823E+00  3.6326897993E+00  3.0227430558E-02  2.9393705118E-02  5.2933449724E-01
  1.1983277592E+04  1.5232692896E+00  3.6244638466E+00  3.0946263697E-02  3.0078386411E-02  5.3236482008E-01
  1.2080267559E+04  1.5385083912E+00  3.6164044452E+00  3.1676168299E-02  3.0773043930E-02  5.3537346072E-01
  1.2177257525E+04  1.5537914017E+00  3.6084469530E+00  3.2417223489E-02  3.1477708026E-02  5.3836044915E-01
  1.2274247492E+04  1.5691758137E+00  3.6006634977E+00  3.3169508310E-02  3.2192459861E-02  5.4132582114E-01
  1.2371237458E+04  1.5845907312E+00  3.5929592297E+00  3.3933101728E-02  3.2917314260E-02  5.4426961805E-01
  1.2468227425E+04  1.6001230219E+00  3.5854401091E+00  3.4708082629E-02  3.3652368490E-02  5.4719188655E-01
  1.2565217391E+04  1.6156854343E+00  3.5779948068E+00  3.5500254668E-02  3.4403002352E-02  5.5009268120E-01
  1.2662207358E+04  1.6313515769E+00  3.5707094064E+00  3.6307028886E-02  3.5166787571E-02  5.5297207286E-01
  1.2759197324E+04  1.6470653601E+00  3.5635141825E+00  3.7125752001E-02  3.5941172520E-02  5.5583009768E-01
  1.2856187291E+04  1.6628631812E+00  3.5564486761E+00  3.7956507734E-02  3.6726231050E-02  5.5866678962E-01
  1.2953177258E+04  1.6787314567E+00  3.5494945174E+00  3.8799379751E-02  3.7522007547E-02  5.6148218819E-01
  1.3050167224E+04  1.6946595938E+00  3.5426370160E+00  3.9654451657E-02  3.8328546857E-02  5.6427633829E-01
  1.3147157191E+04  1.7106855166E+00  3.5359154314E+00  4.0521807000E-02  3.9145924511E-02  5.6704928990E-01
  1.3244147157E+04  1.7267435279E+00  3.5292558648E+00  4.1401529268E-02  3.9974148220E-02  5.6980109794E-01
  1.3341137124E+04  1.7429290782E+00  3.5227575481E+00  4.2293701894E-02  4.0813331843E-02  5.7253182196E-01
  1.3438127090E+04  1.7591486511E+00  3.5163193828E+00  4.3198408251E-02  4.1663461768E-02  5.7524152603E-01
  1.3535117057E+04  1.7754634128E+00  3.5100024208E+00  4.4115731660E-02  4.2524629195E-02  5.7793027845E-01
  1.3632107023E+04  1.7918477410E+00  3.5037781908E+00  4.5045755381E-02  4.3396864860E-02  5.8059815161E-01
  1.3729096990E+04  1.8082895158E+00  3.4976324723E+00  4.5988786273E-02  4.4280414644E-02  5.8324522181E-01
  1.3826086957E+04  1.8248418021E+00  3.4916150871E+00  4.6945075484E-02  4.5175521051E-02  5.8587156603E-01
  1.3923076923E+04  1.8414283031E+00  3.4856500108E+00  4.7914333150E-02  4.6081826246E-02  5.8847723564E-01
  1.4020066890E+04  1.8581315526E+00  3.4798136599E+00  4.8896642532E-02  4.6999441291E-02  5.9106227719E-01
  1.4117056856E+04  1.8748900237E+00  3.4740460942E+00  4.9892086835E-02  4.7928363476E-02  5.9362674234E-01
  1.4214046823E+04  1.8917174152E+00  3.4683582383E+00  5.0900749213E-02  4.8868648571E-02  5.9617068764E-01
  1.4311036789E+04  1.9086510913E+00  3.4627819084E+00  5.1922712765E-02  4.9820373360E-02  5.9869417432E-01
  1.4408026756E+04  1.9256204359E+00  3.4572521184E+00  5.2958060537E-02  5.0783521327E-02  6.0119726811E-01
  1.4505016722E+04  1.9427116287E+00  3.4518427777E+00  5.4006875523E-02  5.1758211633E-02  6.0368003901E-01
  1.4602006689E+04  1.9598602570E+00  3.4464959603E+00  5.5069240665E-02  5.2744430617E-02  6.0614256113E-01
  1.4698996656E+04  1.9770714429E+00  3.4412146608E+00  5.6145238851E-02  5.3742224426E-02  6.0858491249E-01
  1.4795986622E+04  1.9944026173E+00  3.4360452395E+00  5.7234952920E-02  5.4751689484E-02  6.1100717483E-01
  1.4892976589E+04  2.0117709915E+00  3.4309172838E+00  5.8338465660E-02  5.5772788358E-02  6.1340943025E-01
  1.4989966555E+04  2.0292468829E+00  3.4258867694E+00  5.9455859806E-02  5.6805629920E-02  6.1579174498E-01
  1.5086956522E+04  2.0468017572E+00  3.4209288652E+00  6.0599368641E-02  5.7861304572E-02  6.1815418314E-01
  1.5183946488E+04  2.0643945434E+00  3.4160098383E+00  6.1758734937E-02  5.8930351953E-02  6.2049681337E-01
  1.5280936455E+04  2.0821347775E+00  3.4112150822E+00  6.2932667279E-02  6.0011669893E-02  6.2281970858E-01
  1.5377926421E+04  2.0999162349E+00  3.4064592407E+00  6.4121254122E-02  6.1105188739E-02  6.2512294576E-01
  1.5474916388E+04  2.1177673138E+00  3.4017640324E+00  6.5324583888E-02  6.2210979235E-02  6.2740660580E-01
  1.5571906355E+04  2.1357376921E+00  3.3971667171E+00  6.6542744969E-02  6.3329138546E-02  6.2967077329E-01
  1.5668896321E+04  2.1537475566E+00  3.3926041029E+00  6.7775825725E-02  6.4459616261E-02  6.3191553635E-01
  1.5765886288E+04  2.1718557284E+00  3.3881210419E+00  6.9023914485E-02  6.5602519671E-02  6.3414098648E-01
  1.5862876254E+04  2.1900555471E+00  3.3837108149E+00  7.0287099547E-02  6.6757880977E-02  6.3634721831E-01
  1.5959866221E+04  2.2082955430E+00  3.3793331595E+00  7.1565469180E-02  6.7925675053E-02  6.3853432135E-01
  1.6056856187E+04  2.2266570324E+00  3.3750494013E+00  7.2859111620E-02  6.9106040745E-02  6.4070237425E-01
  1.6153846154E+04  2.2450879375E+00  3.3708183733E+00  7.4168115075E-02  7.0298950284E-02  6.4285145822E-01
  1.6250836120E+04  2.2635597015E+00  3.3666179298E+00  7.5492567721E-02  7.1504401206E-02  6.4498165824E-01
  1.6347826087E+04  2.2821706157E+00  3.3625213265E+00  7.6832557705E-02  7.2722560370E-02  6.4709306286E-01
  1.6444816054E+04  2.3008341669E+00  3.3584620999E+00  7.8188173145E-02  7.3953347231E-02  6.4918576402E-01
  1.6541806020E+04  2.3195402621E+00  3.3544323566E+00  7.9559502128E-02  7.5196779716E-02  6.5125985692E-01
  1.6638795987E+04  2.3383955879E+00  3.3505106479E+00  8.0946632714E-02  7.6453043616E-02  6.5331543980E-01
  1.6735785953E+04  2.3572932592E+00  3.3466162782E+00  8.2349652929E-02  7.7722019543E-02  6.5535261384E-01
  1.6832775920E+04  2.3762406054E+00  3.3427544117E+00  8.3768650776E-02  7.9003747932E-02  6.5737148220E-01
  1.6929765886E+04  2.3953307895E+00  3.3389926860E+00  8.5203714224E-02  8.0298402027E-02  6.5937213458E-01
  1.7026755853E+04  2.4144639708E+00  3.3352566465E+00  8.6654931216E-02  8.1605861242E-02  6.6135466223E-01
  1.7123745819E+04  2.4336484463E+00  3.3315521249E+00  8.8122389666E-02  8.2926166202E-02  6.6331916285E-01
  1.7220735786E+04  2.4529748043E+00  3.3279441374E+00  8.9606177459E-02  8.4259492965E-02  6.6526573706E-01
  1.7317725753E+04  2.4723448021E+00  3.3243602882E+00  9.1106382451E-02  8.5605711991E-02  6.6719448824E-01
  1.7414715719E+04  2.4917622064E+00  3.3208031014E+00  9.2623092473E-02  8.6964854893E-02  6.6910552241E-01
  1.7511705686E+04  2.5113259801E+00  3.3173429821E+00  9.4157825476E-02  8.8338377833E-02  6.7099894802E-01
  1.7608695652E+04  2.5309340273E+00  3.3139055496E+00  9.5719841577E-02  8.9734188326E-02  6.7287487586E-01
  1.7705685619E+04  2.5505862033E+00  3.3104905313E+00  9.7298955036E-02  9.1143250845E-02  6.7473341890E-01
  1.7802675585E+04  2.5703825296E+00  3.3071684797E+00  9.8895257473E-02  9.2565774569E-02  6.7657591270E-01
  1.7899665552E+04  2.5902298657E+00  3.3038721103E+00  1.0050884049E-01  9.4001617345E-02  6.7840412807E-01
  1.7996655518E+04  2.6101219584E+00  3.3005968132E+00  1.0213979567E-01  9.5450790466E-02  6.8021812683E-01
  1.8093645485E+04  2.6301426443E+00  3.2974011743E+00  1.0378821459E-01  9.6913480365E-02  6.8201796207E-01
  1.8190635452E+04  2.6502304841E+00  3.2942408674E+00  1.0545418880E-01  9.8389594168E-02  6.8380368916E-01
  1.8287625418E+04  2.6703637008E+00  3.2911003708E+00  1.0713780984E-01  9.9879110346E-02  6.8557536569E-01
  1.8384615385E+04  2.6906043992E+00  3.2880226860E+00  1.0883916921E-01  1.0138217775E-01  6.8733305129E-01
  1.8481605351E+04  2.7109338849E+00  3.2849937187E+00  1.1055835844E-01  1.0289878246E-01  6.8907680764E-01
  1.8578595318E+04  2.7313093601E+00  3.2819833742E+00  1.1229546901E-01  1.0442885525E-01  6.9080669832E-01
  1.8675585284E+04  2.7517656670E+00  3.2790155365E+00  1.1405059238E-01  1.0597249032E-01  6.9252278871E-01
  1.8772575251E+04  2.7723378681E+00  3.2761134439E+00  1.1582554423E-01  1.0753127293E-01  6.9422514595E-01
  1.8869565217E+04  2.7929566637E+00  3.2732288554E+00  1.1761962357E-01  1.0910437971E-01  6.9591383883E-01
  1.8966555184E+04  2.8136241276E+00  3.2703630856E+00  1.1943205584E-01  1.1069108272E-01  6.9758893771E-01
  1.9063545151E+04  2.8344400418E+00  3.2675836428E+00  1.2126293315E-01  1.1229163337E-01  6.9925051444E-01
  1.9160535117E+04  2.8553031481E+00  3.2648206495E+00  1.2311234759E-01  1.1390581366E-01  7.0089864228E-01
  1.9257525084E+04  2.8762133137E+00  3.2620739258E+00  1.2498039123E-01  1.1553363651E-01  7.0253339582E-01
  1.9354515050E+04  2.8972378338E+00  3.2593886797E+00  1.2686715613E-01  1.1717528293E-01  7.0415485094E-01
  1.9451505017E+04  2.9183461697E+00  3.2567433402E+00  1.2877273433E-01  1.1883069510E-01  7.0576308422E-01
  1.9548494983E+04  2.9395021569E+00  3.2541132892E+00  1.3069721788E-01  1.2049979485E-01  7.0735816373E-01
  1.9645484950E+04  2.9607285020E+00  3.2515136319E+00  1.3264069878E-01  1.2218265246E-01  7.0894014999E-01
  1.9742474916E+04  2.9820829165E+00  3.2489822095E+00  1.3460326905E-01  1.2387943543E-01  7.1050910510E-01
  1.9839464883E+04  3.0034855664E+00  3.2464651493E+00  1.3658502066E-01  1.2558994455E-01  7.1206509299E-01
  1.9936454849E+04  3.0249363238E+00  3.2439623003E+00  1.3858604560E-01  1.2731418740E-01  7.1360817934E-01
  2.0033444816E+04  3.0465106233E+00  3.2415231657E+00  1.4061103250E-01  1.2905625723E-01  7.1513843151E-01
  2.0130434783E+04  3.0681609877E+00  3.2391155663E+00  1.4266443025E-01  1.3081967580E-01  7.1665591842E-01
  2.0227424749E+04  3.0898600408E+00  3.2367213144E+00  1.4473770701E-01  1.3259709247E-01  7.1816071050E-01
  2.0324414716E+04  3.1116270104E+00  3.2343526499E+00  1.4683095825E-01  1.3438857027E-01  7.1965287958E-01
  2.0421404682E+04  3.1335276517E+00  3.2320509623E+00  1.4894427941E-01  1.3619431528E-01  7.2113249886E-01
  2.0518394649E+04  3.1554775719E+00  3.2297618069E+00  1.5107776594E-01  1.3801408525E-01  7.2259964276E-01
  2.0615384615E+04  3.1774766481E+00  3.2274850566E+00  1.5323151328E-01  1.3984788340E-01  7.2405438693E-01
  2.0712374582E+04  3.1995859781E+00  3.2252581846E+00  1.5540561688E-01  1.4169590471E-01  7.2549680812E-01
  2.0809364548E+04  3.2217898807E+00  3.2230707310E+00  1.5760017218E-01  1.4355810978E-01  7.2692698411E-01
  2.0906354515E+04  3.2440435456E+00  3.2208949224E+00  1.5981527459E-01  1.4543436102E-01  7.2834499369E-01
  2.1003344482E+04  3.2663468528E+00  3.2187306433E+00  1.6205101956E-01  1.4732465845E-01  7.2975091615E-01
  2.1100334448E+04  3.2887976887E+00  3.2166356130E+00  1.6430750250E-01  1.4922932747E-01  7.3114482552E-01
  2.1197324415E+04  3.3113090811E+00  3.2145575580E+00  1.6658481883E-01  1.5114808751E-01  7.3252679284E-01
  2.1294314381E+04  3.3338707381E+00  3.2124903230E+00  1.6888306397E-01  1.5308090290E-01  7.3389689038E-01
  2.1391304348E+04  3.3565013190E+00  3.2104445341E+00  1.7120233334E-01  1.5502783555E-01  7.3525519162E-01
  2.1488294314E+04  3.3792735846E+00  3.2084611966E+00  1.7354272234E-01  1.5698914053E-01  7.3660177114E-01
  2.1585284281E+04  3.4020967513E+00  3.2064880080E+00  1.7590432637E-01  1.5896450356E-01  7.3793670457E-01
  2.1682274247E+04  3.4249707034E+00  3.2045248711E+00  1.7828724083E-01  1.6095391914E-01  7.3926006847E-01
  2.1779264214E+04  3.4479369718E+00  3.2025945837E+00  1.8069156113E-01  1.6295753323E-01  7.4057194034E-01
  2.1876254181E+04  3.4710248131E+00  3.2007125839E+00  1.8311738265E-01  1.6497545407E-01  7.4187239850E-01
  2.1973244147E+04  3.4941640923E+00  3.1988400083E+00  1.8556480078E-01  1.6700742142E-01  7.4316152203E-01
  2.2070234114E+04  3.5173546961E+00  3.1969767684E+00  1.8803391090E-01  1.6905342665E-01  7.4443939074E-01
  2.2167224080E+04  3.5406544138E+00  3.1951534096E+00  1.9052480840E-01  1.7111368336E-01  7.4570608510E-01
  2.2264214047E+04  3.5640622026E+00  3.1933687026E+00  1.9303758866E-01  1.7318818683E-01  7.4696168617E-01
  2.2361204013E+04  3.5875219843E+00  3.1915927440E+00  1.9557245349E-01  1.7527679899E-01  7.4820627554E-01
  2.2458193980E+04  3.6110336481E+00  3.1898254531E+00  1.9814999680E-01  1.7739593711E-01  7.4943993491E-01
  2.2555183946E+04  3.6346640814E+00  3.1881008802E+00  2.0075016085E-01  1.7952963569E-01  7.5066274162E-01
  2.2652173913E+04  3.6583962392E+00  3.1864096626E+00  2.0337304534E-01  1.8167782350E-01  7.5187477076E-01
  2.2749163880E+04  3.6821809632E+00  3.1847265623E+00  2.0601874996E-01  1.8384029098E-01  7.5307609818E-01
  2.2846153846E+04  3.7060181449E+00  3.1830515060E+00  2.0868737442E-01  1.8601702390E-01  7.5426680046E-01
  2.2943143813E+04  3.7299760464E+00  3.1814179757E+00  2.1137901844E-01  1.8820829865E-01  7.5544695475E-01
  2.3040133779E+04  3.7540370425E+00  3.1798166671E+00  2.1409378174E-01  1.9041403519E-01  7.5661663884E-01
  2.3137123746E+04  3.7781511961E+00  3.1782228861E+00  2.1683176404E-01  1.9263400731E-01  7.5777593102E-01
  2.3234113712E+04  3.8023184012E+00  3.1766365661E+00  2.1959306508E-01  1.9486819758E-01  7.5892491003E-01
  2.3331103679E+04  3.8265999923E+00  3.1750867061E+00  2.2237778459E-01  1.9711686273E-01  7.6006365506E-01
  2.3428093645E+04  3.8509943417E+00  3.1735719324E+00  2.2518602233E-01  1.9937998738E-01  7.6119224568E-01
  2.3525083612E+04  3.8754424580E+00  3.1720641349E+00  2.2801787804E-01  2.0165729158E-01  7.6231076176E-01
  2.3622073579E+04  3.8999442373E+00  3.1705632531E+00  2.3087345148E-01  2.0394875471E-01  7.6341928346E-01
  2.3719063545E+04  3.9245451895E+00  3.1690900359E+00  2.3375284242E-01  2.0625456942E-01  7.6451789119E-01
  2.3816053512E+04  3.9492774507E+00  3.1676586144E+00  2.3665615063E-01  2.0857487476E-01  7.6560666526E-01
  2.3913043478E+04  3.9740641061E+00  3.1662336531E+00  2.3958347588E-01  2.1090929183E-01  7.6668568257E-01
  2.4010033445E+04  3.9989050542E+00  3.1648150968E+00  2.4253491796E-01  2.1325779687E-01  7.6775501793E-01
  2.4107023411E+04  4.0238204707E+00  3.1634118162E+00  2.4551057666E-01  2.1562046499E-01  7.6881474654E-01
  2.4204013378E+04  4.0488952437E+00  3.1620607417E+00  2.4851055178E-01  2.1799769743E-01  7.6986494395E-01
  2.4301003344E+04  4.0740250562E+00  3.1607156440E+00  2.5153494311E-01  2.2038896215E-01  7.7090568601E-01
  2.4397993311E+04  4.0992098087E+00  3.1593764729E+00  2.5458385046E-01  2.2279423234E-01  7.7193704887E-01
  2.4494983278E+04  4.1244494022E+00  3.1580431790E+00  2.5765737365E-01  2.2521348034E-01  7.7295910885E-01
  2.4591973244E+04  4.1498561297E+00  3.1567631543E+00  2.6075561250E-01  2.2764726258E-01  7.7397194250E-01
  2.4688963211E+04  4.1753337565E+00  3.1554951100E+00  2.6387866683E-01  2.3009506441E-01  7.7497562648E-01
  2.4785953177E+04  4.2008669885E+00  3.1542325438E+00  2.6702663647E-01  2.3255677786E-01  7.7597023758E-01
  2.4882943144E+04  4.2264557286E+00  3.1529754107E+00  2.7019962127E-01  2.3503237226E-01  7.7695585263E-01
  2.4979933110E+04  4.2521673539E+00  3.1517514431E+00  2.7339772105E-01  2.3752218438E-01  7.7793254853E-01
  2.5076923077E+04  4.2779961976E+00  3.1505577845E+00  2.7663751003E-01  2.4003856780E-01  7.7890040212E-01
  2.5173913043E+04  4.3038813188E+00  3.1493691833E+00  2.7990727985E-01  2.4257220047E-01  7.7985948822E-01
  2.5270903010E+04  4.3298226226E+00  3.1481855985E+00  2.8320287859E-01  2.4511983695E-01  7.8080987897E-01
  2.5367892977E+04  4.3558313843E+00  3.1470118756E+00  2.8652440974E-01  2.4768150987E-01  7.8175164648E-01
  2.5464882943E+04  4.3820061947E+00  3.1458900207E+00  2.8987197679E-01  2.5025777486E-01  7.8268486302E-01
  2.5561872910E+04  4.4082378917E+00  3.1447728283E+00  2.9324568325E-01  2.5284796068E-01  7.8360960093E-01
  2.5658862876E+04  4.4345263823E+00  3.1436602613E+00  2.9664563264E-01  2.5545203075E-01  7.8452593261E-01
  2.5755852843E+04  4.4608715742E+00  3.1425522832E+00  3.0007192849E-01  2.5806994769E-01  7.8543393051E-01
  2.5852842809E+04  4.4873379192E+00  3.1414787077E+00  3.0352467437E-01  2.6070209668E-01  7.8633366706E-01
  2.5949832776E+04  4.5139069092E+00  3.1404304782E+00  3.0700397384E-01  2.6334833110E-01  7.8722521465E-01
  2.6046822742E+04  4.5405332114E+00  3.1393865070E+00  3.1050993046E-01  2.6600831801E-01  7.8810864562E-01
  2.6143812709E+04  4.5672167355E+00  3.1383467612E+00  3.1404264784E-01  2.6868201710E-01  7.8898403221E-01
  2.6240802676E+04  4.5939575993E+00  3.1373113135E+00  3.1760222959E-01  2.7136938873E-01  7.8985144654E-01
  2.6337792642E+04  4.6208540409E+00  3.1363297257E+00  3.2118877931E-01  2.7407111567E-01  7.9071095975E-01
  2.6434782609E+04  4.6478082207E+00  3.1353520514E+00  3.2480240064E-01  2.7678645134E-01  7.9156263947E-01
  2.6531772575E+04  4.6748200498E+00  3.1343782608E+00  3.2844319724E-01  2.7951535256E-01  7.9240655441E-01
  2.6628762542E+04  4.7018894404E+00  3.1334083243E+00  3.3211127275E-01  2.8225777535E-01  7.9324277338E-01
  2.6725752508E+04  4.7290456922E+00  3.1324587509E+00  3.3580673086E-01  2.8501391859E-01  7.9407136513E-01
  2.6822742475E+04  4.7563172794E+00  3.1315451893E+00  3.3952967524E-01  2.8778398450E-01  7.9489239825E-01
  2.6919732441E+04  4.7836468503E+00  3.1306351902E+00  3.4328020960E-01  2.9056745763E-01  7.9570594108E-01
  2.7016722408E+04  4.8110343186E+00  3.1297287269E+00  3.4705843765E-01  2.9336429122E-01  7.9651206070E-01
  2.7113712375E+04  4.8384795986E+00  3.1288257730E+00  3.5086446312E-01  2.9617443776E-01  7.9731082394E-01
  2.7210702341E+04  4.8660272236E+00  3.1279547584E+00  3.5469838974E-01  2.9899827742E-01  7.9810220617E-01
  2.7307692308E+04  4.8936634506E+00  3.1271064932E+00  3.5856032127E-01  3.0183564298E-01  7.9888674212E-01
  2.7404682274E+04  4.9213578177E+00  3.1262614643E+00  3.6245039300E-01  3.0468621882E-01  7.9966715800E-01
  2.7501672241E+04  4.9491102407E+00  3.1254196479E+00  3.6636881199E-01  3.0755002731E-01  8.0044455655E-01
  2.7598662207E+04  4.9769206358E+00  3.1245810207E+00  3.7031555016E-01  3.1042692405E-01  8.0121894836E-01
  2.7695652174E+04  5.0048373505E+00  3.1237816155E+00  3.7429071133E-01  3.1331740992E-01  8.0199034571E-01
  2.7792642140E+04  5.0328269304E+00  3.1229960802E+00  3.7829439936E-01  3.1622106604E-01  8.0275876104E-01
  2.7889632107E+04  5.0608747168E+00  3.1222134779E+00  3.8232671807E-01  3.1913767519E-01  8.0352420672E-01
  2.7986622074E+04  5.0889806277E+00  3.1214337877E+00  3.8638777135E-01  3.2206718384E-01  8.0428669514E-01
  2.8083612040E+04  5.1171445816E+00  3.1206569886E+00  3.9047766308E-01  3.2500953776E-01  8.0504623863E-01
  2.8180602007E+04  5.1454100595E+00  3.1199225839E+00  3.9459649713E-01  3.2796529575E-01  8.0580284948E-01
  2.8277591973E+04  5.1737409396E+00  3.1191973630E+00  3.9874437741E-01  3.3093390931E-01  8.0655653996E-01
  2.8374581940E+04  5.2021300031E+00  3.1184747931E+00  4.0292140784E-01  3.3391522300E-01  8.0730732232E-01
  2.8471571906E+04  5.2305771700E+00  3.1177548553E+00  4.0712769235E-01  3.3690918011E-01  8.0805520875E-01
  2.8568561873E+04  5.2590823606E+00  3.1170375313E+00  4.1136333487E-01  3.3991572329E-01  8.0880021143E-01
  2.8665551839E+04  5.2876784614E+00  3.1163618350E+00  4.1562843936E-01  3.4293540581E-01  8.0954234247E-01
  2.8762541806E+04  5.3163378418E+00  3.1156946527E+00  4.1992310978E-01  3.4596767285E-01  8.1028161400E-01
  2.8859531773E+04  5.3450552929E+00  3.1150298586E+00  4.2424745011E-01  3.4901237128E-01  8.1101803806E-01
  2.8956521739E+04  5.3738307365E+00  3.1143674360E+00  4.2860156435E-01  3.5206944137E-01  8.1175162668E-01
  2.9053511706E+04  5.4026640951E+00  3.1137073687E+00  4.3298555648E-01  3.5513882277E-01  8.1248239186E-01
  2.9150501672E+04  5.4315750968E+00  3.1130843839E+00  4.3739953053E-01  3.5822100065E-01  8.1321034554E-01
  2.9247491639E+04  5.4605494500E+00  3.1124730934E+00  4.4184359053E-01  3.6131553542E-01  8.1393549966E-01
  2.9344481605E+04  5.4895816720E+00  3.1118639462E+00  4.4631784050E-01  3.6442221770E-01  8.1465786608E-01
  2.9441471572E+04  5.5186716864E+00  3.1112569277E+00  4.5082238451E-01  3.6754098491E-01  8.1537745665E-01
  2.9538461538E+04  5.5478194173E+00  3.1106520234E+00  4.5535732660E-01  3.7067177385E-01  8.1609428317E-01
  2.9635451505E+04  5.5770322611E+00  3.1100760286E+00  4.5992277087E-01  3.7381494158E-01  8.1680835741E-01
  2.9732441472E+04  5.6063073707E+00  3.1095186030E+00  4.6451882139E-01  3.7697028017E-01  8.1751969110E-01
  2.9829431438E+04  5.6356400585E+00  3.1089630921E+00  4.6914558226E-01  3.8013746802E-01  8.1822829592E-01
  2.9926421405E+04  5.6650302499E+00  3.1084094834E+00  4.7380315759E-01  3.8331643984E-01  8.1893418352E-01
  3.0023411371E+04  5.6944778708E+00  3.1078577641E+00  4.7850092478E-01  3.8651318035E-01  8.1963736552E-01
  3.0120401338E+04  5.7239845042E+00  3.1073232825E+00  4.8325925448E-01  3.8974099738E-01  8.2033785348E-01
  3.0217391304E+04  5.7535513766E+00  3.1068177708E+00  4.8804935123E-01  3.9298111082E-01  8.2103565893E-01
  3.0314381271E+04  5.7831754906E+00  3.1063139608E+00  4.9287132390E-01  3.9623301721E-01  8.2173079336E-01
  3.0411371237E+04  5.8128567732E+00  3.1058118415E+00  4.9772528139E-01  3.9949664758E-01  8.2242326823E-01
  3.0508361204E+04  5.8425951519E+00  3.1053114019E+00  5.0261133258E-01  4.0277193238E-01  8.2311309494E-01
  3.0605351171E+04  5.8723907113E+00  3.1048131991E+00  5.0752958640E-01  4.0605881195E-01  8.2380028486E-01
  3.0702341137E+04  5.9022545992E+00  3.1043576709E+00  5.1248015180E-01  4.0935797342E-01  8.2448484932E-01
  3.0799331104E+04  5.9321754480E+00  3.1039036459E+00  5.1746313775E-01  4.1266859972E-01  8.2516679960E-01
  3.0896321070E+04  5.9621531862E+00  3.1034511146E+00  5.2247865323E-01  4.1599061937E-01  8.2584614695E-01
  3.0993311037E+04  5.9921877431E+00  3.1030000673E+00  5.2752680725E-01  4.1932396038E-01  8.2652290258E-01
  3.1090301003E+04  6.0222790480E+00  3.1025504946E+00  5.3260770884E-01  4.2266855021E-01  8.2719707764E-01
  3.1187290970E+04  6.0524389726E+00  3.1021257549E+00  5.3772146704E-01  4.2602481568E-01  8.2786868326E-01
