#[MATERIAL DEFINITION FOR MC-GPU: interaction mean free path and sampling data from PENELOPE 2006]
#[MATERIAL NAME]
# MATERIAL10                                                    
#[NOMINAL DENSITY (g/cm^3)]
#   1.00000000
#[NUMBER OF DATA VALUES]
#   1495
#[MEAN FREE PATHS (cm) (ie, average distance between interactions)]
#[Energy (eV)     | Rayleigh        | Compton         | Photoelectric   | TOTAL (+pair prod) (cm) | Rayleigh: max cumul prob F^2]
  5.0000000000E+03  1.9557357827E+00  7.7503019594E+00  1.6589406889E-02  1.6415031278E-02  3.0465110657E-01
  5.0969899666E+03  1.9964514669E+00  7.6908711575E+00  1.7515371574E-02  1.7323930440E-02  3.0953762146E-01
  5.1939799331E+03  2.0374862682E+00  7.6339091136E+00  1.8473793631E-02  1.8263996585E-02  3.1435983230E-01
  5.2909698997E+03  2.0788327393E+00  7.5792689379E+00  1.9465157067E-02  1.9235642886E-02  3.1912074622E-01
  5.3879598662E+03  2.1204833434E+00  7.5268142765E+00  2.0489943450E-02  2.0239277481E-02  3.2382324329E-01
  5.4849498328E+03  2.1624304790E+00  7.4764184058E+00  2.1548952980E-02  2.1275616407E-02  3.2847008768E-01
  5.5819397993E+03  2.2046665046E+00  7.4279634202E+00  2.2646225352E-02  2.2348526653E-02  3.3306393790E-01
  5.6789297659E+03  2.2471837629E+00  7.3813395012E+00  2.3778675738E-02  2.3454927309E-02  3.3760735452E-01
  5.7759197324E+03  2.2899746052E+00  7.3364442601E+00  2.4946876477E-02  2.4595302429E-02  3.4210275124E-01
  5.8729096990E+03  2.3330314147E+00  7.2931821437E+00  2.6151341497E-02  2.5770075990E-02  3.4655241094E-01
  5.9698996656E+03  2.3763466374E+00  7.2514638949E+00  2.7392440962E-02  2.6979529292E-02  3.5095853475E-01
  6.0668896321E+03  2.4199131725E+00  7.2112059304E+00  2.8674246984E-02  2.8227528474E-02  3.5532320341E-01
  6.1638795987E+03  2.4637250434E+00  7.1723296811E+00  2.9995567088E-02  2.9512825579E-02  3.5964833946E-01
  6.2608695652E+03  2.5077773390E+00  7.1347612605E+00  3.1358589558E-02  3.0837445391E-02  3.6393579628E-01
  6.3578595318E+03  2.5520652824E+00  7.0984314645E+00  3.2770508786E-02  3.2208237838E-02  3.6818734685E-01
  6.4548494983E+03  2.5965938872E+00  7.0633073627E+00  3.4222855546E-02  3.3616908644E-02  3.7240459974E-01
  6.5518394649E+03  2.6413604372E+00  7.0293336674E+00  3.5720565326E-02  3.5068116309E-02  3.7658909149E-01
  6.6488294314E+03  2.6863501299E+00  6.9964196768E+00  3.7261732414E-02  3.6559906726E-02  3.8074230436E-01
  6.7458193980E+03  2.7315582502E+00  6.9645113237E+00  3.8845328017E-02  3.8091177898E-02  3.8486557235E-01
  6.8428093645E+03  2.7769801846E+00  6.9335578607E+00  4.0471873029E-02  3.9662319114E-02  3.8896015657E-01
  6.9397993311E+03  2.8226114382E+00  6.9035116387E+00  4.2141886865E-02  4.1273714153E-02  3.9302730889E-01
  7.0367892977E+03  2.8684486502E+00  6.8743310120E+00  4.3859789010E-02  4.2929479371E-02  3.9706813332E-01
  7.1337792642E+03  2.9145178479E+00  6.8460642406E+00  4.5629031057E-02  4.4632792524E-02  4.0108357818E-01
  7.2307692308E+03  2.9607868818E+00  6.8185787533E+00  4.7443960523E-02  4.6378092355E-02  4.0507457830E-01
  7.3277591973E+03  3.0072529911E+00  6.7918369642E+00  4.9305107796E-02  4.8165753490E-02  4.0904205810E-01
  7.4247491639E+03  3.0539134268E+00  6.7658035444E+00  5.1213001927E-02  4.9996144727E-02  4.1298693201E-01
  7.5217391304E+03  3.1007830851E+00  6.7404932082E+00  5.3168170645E-02  5.1869636758E-02  4.1691001315E-01
  7.6187290970E+03  3.1478653107E+00  6.7158870081E+00  5.5171140377E-02  5.3786590479E-02  4.2081192826E-01
  7.7157190635E+03  3.1951353105E+00  6.6918937711E+00  5.7222436265E-02  5.5747347780E-02  4.2469328392E-01
  7.8127090301E+03  3.2425903437E+00  6.6684855852E+00  5.9322582180E-02  5.7752253779E-02  4.2855468576E-01
  7.9096989967E+03  3.2902552240E+00  6.6457040661E+00  6.1472100741E-02  5.9801662100E-02  4.3239673852E-01
  8.0066889632E+03  3.3381202666E+00  6.6235023234E+00  6.3673602911E-02  6.1897878359E-02  4.3622001083E-01
  8.1036789298E+03  3.3861642242E+00  6.6018091157E+00  6.5954713397E-02  6.4066786504E-02  4.4002491473E-01
  8.2006688963E+03  3.4343934454E+00  6.5806224881E+00  6.8288632518E-02  6.6282848347E-02  4.4381182574E-01
  8.2976588629E+03  3.4828440283E+00  6.5600021856E+00  7.0675926120E-02  6.8546438092E-02  4.4758112332E-01
  8.3946488294E+03  3.5314700821E+00  6.5398268836E+00  7.3117159129E-02  7.0857873992E-02  4.5133319053E-01
  8.4916387960E+03  3.5802710696E+00  6.5200821474E+00  7.5612910078E-02  7.3217507684E-02  4.5506838265E-01
  8.5886287625E+03  3.6293043668E+00  6.5008665979E+00  7.8163941290E-02  7.5625897442E-02  4.5878693710E-01
  8.6856187291E+03  3.6785094116E+00  6.4820413127E+00  8.0770614286E-02  7.8083140479E-02  4.6248906986E-01
  8.7826086957E+03  3.7278911629E+00  6.4636048348E+00  8.3433490732E-02  8.0589559360E-02  4.6617500307E-01
  8.8795986622E+03  3.7775034069E+00  6.4456401888E+00  8.6153131426E-02  8.3145508417E-02  4.6984496387E-01
  8.9765886288E+03  3.8272830336E+00  6.4280183795E+00  8.8930096305E-02  8.5751246960E-02  4.7349913381E-01
  9.0735785953E+03  3.8772546198E+00  6.4107719558E+00  9.1777878493E-02  8.8419098750E-02  4.7713761935E-01
  9.1705685619E+03  3.9274416848E+00  6.3939242832E+00  9.4689009994E-02  9.1141876881E-02  4.8076052761E-01
  9.2675585284E+03  3.9777918444E+00  6.3773787313E+00  9.7660060195E-02  9.3916109868E-02  4.8436797273E-01
  9.3645484950E+03  4.0283666540E+00  6.3612197330E+00  1.0069160598E-01  9.6742144812E-02  4.8796006418E-01
  9.4615384615E+03  4.0791271997E+00  6.3453739808E+00  1.0378422350E-01  9.9620233236E-02  4.9153684702E-01
  9.5585284281E+03  4.1300665033E+00  6.3298234025E+00  1.0693881256E-01  1.0255094511E-01  4.9509834767E-01
  9.6555183946E+03  4.1812410152E+00  6.3146336941E+00  1.1015575788E-01  1.0553443140E-01  4.9864460025E-01
  9.7525083612E+03  4.2325722020E+00  6.2996887647E+00  1.1343552255E-01  1.0857077662E-01  5.0217565181E-01
  9.8494983278E+03  4.2841414579E+00  6.2850854635E+00  1.1677868039E-01  1.1166032223E-01  5.0569153618E-01
  9.9464882943E+03  4.3358882477E+00  6.2707356820E+00  1.2018580455E-01  1.1480325576E-01  5.0919219904E-01
  1.0043478261E+04  4.3878365699E+00  6.2566619649E+00  1.2367093925E-01  1.1801211352E-01  5.1267758528E-01
  1.0140468227E+04  4.4400024932E+00  6.2428718869E+00  1.2723881590E-01  1.2129085427E-01  5.1614764830E-01
  1.0237458194E+04  4.4923363295E+00  6.2293024644E+00  1.3087384984E-01  1.2462489791E-01  5.1960234961E-01
  1.0334448161E+04  4.5449268446E+00  6.2160411121E+00  1.3457664168E-01  1.2801458896E-01  5.2304165843E-01
  1.0431438127E+04  4.5976626161E+00  6.2029621090E+00  1.3834779153E-01  1.3146002239E-01  5.2646555131E-01
  1.0528428094E+04  4.6506752733E+00  6.1901927470E+00  1.4218789897E-01  1.3496158739E-01  5.2987400597E-01
  1.0625418060E+04  4.7038391373E+00  6.1775992947E+00  1.4609756305E-01  1.3851933810E-01  5.3326693725E-01
  1.0722408027E+04  4.7572615504E+00  6.1652793416E+00  1.5007738232E-01  1.4213362497E-01  5.3664423365E-01
  1.0819397993E+04  4.8108582731E+00  6.1531456713E+00  1.5412795479E-01  1.4580453369E-01  5.4000579368E-01
  1.0916387960E+04  4.8646990954E+00  6.1412562634E+00  1.5824987799E-01  1.4953235500E-01  5.4335152423E-01
  1.1013377926E+04  4.9187328697E+00  6.1295580659E+00  1.6244374894E-01  1.5331720005E-01  5.4668134033E-01
  1.1110367893E+04  4.9730009334E+00  6.1180814790E+00  1.6671016413E-01  1.5715930761E-01  5.4999516476E-01
  1.1207357860E+04  5.0274753452E+00  6.1067957946E+00  1.7105901714E-01  1.6106704729E-01  5.5329292777E-01
  1.1304347826E+04  5.0821796527E+00  6.0957153572E+00  1.7550657220E-01  1.6505441657E-01  5.5657454518E-01
  1.1401337793E+04  5.1370976478E+00  6.0848204756E+00  1.8002994358E-01  1.6910066334E-01  5.5983989383E-01
  1.1498327759E+04  5.1922473631E+00  6.0741204892E+00  1.8462975391E-01  1.7320597695E-01  5.6308885543E-01
  1.1595317726E+04  5.2476112146E+00  6.0635958582E+00  1.8930662546E-01  1.7737047726E-01  5.6632132010E-01
  1.1692307692E+04  5.3032156552E+00  6.0532615259E+00  1.9406118013E-01  1.8159435362E-01  5.6953718610E-01
  1.1789297659E+04  5.3590269308E+00  6.0430876680E+00  1.9889403948E-01  1.8587767874E-01  5.7273635948E-01
  1.1886287625E+04  5.4150955600E+00  6.0331050286E+00  2.0380582470E-01  1.9022067204E-01  5.7591875394E-01
  1.1983277592E+04  5.4713550896E+00  6.0232634655E+00  2.0879715665E-01  1.9462332499E-01  5.7908427556E-01
  1.2080267559E+04  5.5278975088E+00  6.0136193334E+00  2.1386865585E-01  1.9908592495E-01  5.8223280647E-01
  1.2177257525E+04  5.5846053524E+00  6.0040925159E+00  2.1902094244E-01  2.0360833977E-01  5.8536423494E-01
  1.2274247492E+04  5.6416312935E+00  5.9947744268E+00  2.2425463625E-01  2.0819097150E-01  5.8847845737E-01
  1.2371237458E+04  5.6987867092E+00  5.9855456720E+00  2.2957035676E-01  2.1283351258E-01  5.9157537806E-01
  1.2468227425E+04  5.7563060455E+00  5.9765418437E+00  2.3496872310E-01  2.1753653649E-01  5.9465490893E-01
  1.2565217391E+04  5.8139534818E+00  5.9676211723E+00  2.4048130307E-01  2.2232605377E-01  5.9771697303E-01
  1.2662207358E+04  5.8719307925E+00  5.9588949383E+00  2.4609436798E-01  2.2719011555E-01  6.0076151705E-01
  1.2759197324E+04  5.9300839531E+00  5.9502736098E+00  2.5179378501E-01  2.3211576582E-01  6.0378844681E-01
  1.2856187291E+04  5.9885149363E+00  5.9418090643E+00  2.5758020376E-01  2.3710329128E-01  6.0679766603E-01
  1.2953177258E+04  6.0471857760E+00  5.9334777854E+00  2.6345427367E-01  2.4215264967E-01  6.0978908629E-01
  1.3050167224E+04  6.1060679565E+00  5.9252612577E+00  2.6941664394E-01  2.4726380251E-01  6.1276262675E-01
  1.3147157191E+04  6.1652686508E+00  5.9172112478E+00  2.7546796362E-01  2.5243704854E-01  6.1571821392E-01
  1.3244147157E+04  6.2246018549E+00  5.9092312236E+00  2.8160888154E-01  2.5767192637E-01  6.1865577355E-01
  1.3341137124E+04  6.2843413191E+00  5.9014524804E+00  2.8784004637E-01  2.6296916431E-01  6.2157522107E-01
  1.3438127090E+04  6.3442186013E+00  5.8937418567E+00  2.9416210658E-01  2.6832805044E-01  6.2447647745E-01
  1.3535117057E+04  6.4044115009E+00  5.8861808337E+00  3.0057571043E-01  2.7374905699E-01  6.2735947125E-01
  1.3632107023E+04  6.4648454139E+00  5.8787318568E+00  3.0708150603E-01  2.7923196522E-01  6.3022413834E-01
  1.3729096990E+04  6.5254858446E+00  5.8713764711E+00  3.1368490509E-01  2.8478057062E-01  6.3307042182E-01
  1.3826086957E+04  6.5864890667E+00  5.8641817614E+00  3.2039015636E-01  2.9039822240E-01  6.3589827969E-01
  1.3923076923E+04  6.6476301513E+00  5.8570460707E+00  3.2718997466E-01  2.9607764266E-01  6.3870765162E-01
  1.4020066890E+04  6.7091552032E+00  5.8500728472E+00  3.3408501317E-01  3.0181953046E-01  6.4149846977E-01
  1.4117056856E+04  6.7708806003E+00  5.8431814294E+00  3.4107592493E-01  3.0762326342E-01  6.4427067389E-01
  1.4214046823E+04  6.8328482860E+00  5.8363870847E+00  3.4816336281E-01  3.1348889757E-01  6.4702421110E-01
  1.4311036789E+04  6.8951709989E+00  5.8297333850E+00  3.5534797949E-01  3.1941673125E-01  6.4975903565E-01
  1.4408026756E+04  6.9576354467E+00  5.8231321362E+00  3.6263042748E-01  3.2540596970E-01  6.5247510876E-01
  1.4505016722E+04  7.0205046778E+00  5.8166848623E+00  3.7001135915E-01  3.3145740964E-01  6.5517239840E-01
  1.4602006689E+04  7.0835819555E+00  5.8103124408E+00  3.7749142665E-01  3.3757028090E-01  6.5785087909E-01
  1.4698996656E+04  7.1468836767E+00  5.8040193814E+00  3.8507128202E-01  3.4374451831E-01  6.6051053169E-01
  1.4795986622E+04  7.2105870783E+00  5.7978699425E+00  3.9275157708E-01  3.4998065013E-01  6.6315134325E-01
  1.4892976589E+04  7.2744365091E+00  5.7917671344E+00  4.0053296351E-01  3.5627761428E-01  6.6577330276E-01
  1.4989966555E+04  7.3386513439E+00  5.7857889860E+00  4.0841609282E-01  3.6263608983E-01  6.6837638326E-01
  1.5086956522E+04  7.4031424879E+00  5.7799012264E+00  4.1646729602E-01  3.6910719875E-01  6.7096055861E-01
  1.5183946488E+04  7.4677816548E+00  5.7740571307E+00  4.2463144540E-01  3.7564605313E-01  6.7352580954E-01
  1.5280936455E+04  7.5329160763E+00  5.7683765359E+00  4.3290177531E-01  3.8224801175E-01  6.7607212333E-01
  1.5377926421E+04  7.5982089171E+00  5.7627400984E+00  4.4127897309E-01  3.8891155910E-01  6.7859949359E-01
  1.5474916388E+04  7.6637519634E+00  5.7571786623E+00  4.4976372606E-01  3.9563688475E-01  6.8110792010E-01
  1.5571906355E+04  7.7297056469E+00  5.7517450487E+00  4.5835672151E-01  4.0242450079E-01  6.8359740857E-01
  1.5668896321E+04  7.7958121162E+00  5.7463502542E+00  4.6705864672E-01  4.0927310581E-01  6.8606797047E-01
  1.5765886288E+04  7.8622648798E+00  5.7410582285E+00  4.7587018894E-01  4.1618334848E-01  6.8851962284E-01
  1.5862876254E+04  7.9290420088E+00  5.7358596454E+00  4.8479203538E-01  4.2315493966E-01  6.9095238798E-01
  1.5959866221E+04  7.9959740640E+00  5.7306974155E+00  4.9382487327E-01  4.3018687609E-01  6.9336628450E-01
  1.6056856187E+04  8.0633336739E+00  5.7256595621E+00  5.0296938979E-01  4.3728021744E-01  6.9576132172E-01
  1.6153846154E+04  8.1309462076E+00  5.7206873284E+00  5.1222627208E-01  4.4443391472E-01  6.9813751372E-01
  1.6250836120E+04  8.1987158523E+00  5.7157491388E+00  5.2159620729E-01  4.5164724054E-01  7.0049488034E-01
  1.6347826087E+04  8.2669784570E+00  5.7109508766E+00  5.3107988254E-01  4.5892163276E-01  7.0283344698E-01
  1.6444816054E+04  8.3354383981E+00  5.7061968352E+00  5.4067798490E-01  4.6625535520E-01  7.0515324445E-01
  1.6541806020E+04  8.4040612070E+00  5.7014757707E+00  5.5039120144E-01  4.7364793734E-01  7.0745430870E-01
  1.6638795987E+04  8.4732184221E+00  5.6969020274E+00  5.6022021920E-01  4.8110108833E-01  7.0973668069E-01
  1.6735785953E+04  8.5425378143E+00  5.6923585049E+00  5.7016572519E-01  4.8861254936E-01  7.1200040620E-01
  1.6832775920E+04  8.6120453745E+00  5.6878528979E+00  5.8022840640E-01  4.9618214465E-01  7.1424553521E-01
  1.6929765886E+04  8.6820718127E+00  5.6834843872E+00  5.9040894980E-01  5.0381144786E-01  7.1647211055E-01
  1.7026755853E+04  8.7522627377E+00  5.6791441586E+00  6.0070804232E-01  5.1149816207E-01  7.1868017218E-01
  1.7123745819E+04  8.8226481576E+00  5.6748409375E+00  6.1112637088E-01  5.1924212044E-01  7.2086976597E-01
  1.7220735786E+04  8.8935558907E+00  5.6706707330E+00  6.2166462235E-01  5.2704496321E-01  7.2304094258E-01
  1.7317725753E+04  8.9646304652E+00  5.6665269885E+00  6.3232348360E-01  5.3490425351E-01  7.2519375731E-01
  1.7414715719E+04  9.0358857669E+00  5.6624135736E+00  6.4310364146E-01  5.4281971086E-01  7.2732826986E-01
  1.7511705686E+04  9.1076867531E+00  5.6584351309E+00  6.5401590278E-01  5.5080047098E-01  7.2944454421E-01
  1.7608695652E+04  9.1796569789E+00  5.6544814346E+00  6.6512589495E-01  5.5888958767E-01  7.3154264840E-01
  1.7705685619E+04  9.2517959076E+00  5.6505521957E+00  6.7636163664E-01  5.6703487036E-01  7.3362265438E-01
  1.7802675585E+04  9.3244777690E+00  5.6467527235E+00  6.8772384423E-01  5.7523843622E-01  7.3568515285E-01
  1.7899665552E+04  9.3973541574E+00  5.6429828812E+00  6.9921323413E-01  5.8349761881E-01  7.3773091282E-01
  1.7996655518E+04  9.4704016837E+00  5.6392359073E+00  7.1083052282E-01  5.9181184845E-01  7.3975998002E-01
  1.8093645485E+04  9.5439377825E+00  5.6355995248E+00  7.2257642687E-01  6.0018295434E-01  7.4177239960E-01
  1.8190635452E+04  9.6177299078E+00  5.6320076152E+00  7.3445166288E-01  6.0860894048E-01  7.4376822066E-01
  1.8287625418E+04  9.6916956257E+00  5.6284370774E+00  7.4645694753E-01  6.1708879635E-01  7.4574749609E-01
  1.8384615385E+04  9.7660729350E+00  5.6249525110E+00  7.5859299756E-01  6.2562385656E-01  7.4771028244E-01
  1.8481605351E+04  9.8407902768E+00  5.6215329322E+00  7.7086052979E-01  6.3421321349E-01  7.4965663974E-01
  1.8578595318E+04  9.9156836848E+00  5.6181333148E+00  7.8326026107E-01  6.4285520758E-01  7.5158663138E-01
  1.8675585284E+04  9.9908883276E+00  5.6147896828E+00  7.9579290832E-01  6.5155043851E-01  7.5350032396E-01
  1.8772575251E+04  1.0066540279E+01  5.6115371315E+00  8.0846798794E-01  6.6030544182E-01  7.5539778713E-01
  1.8869565217E+04  1.0142370791E+01  5.6083032111E+00  8.2128218887E-01  6.6911490687E-01  7.5727909349E-01
  1.8966555184E+04  1.0218388034E+01  5.6050899971E+00  8.3423181252E-01  6.7797545799E-01  7.5914431841E-01
  1.9063545151E+04  1.0294983902E+01  5.6019994483E+00  8.4731758017E-01  6.8688989098E-01  7.6099353994E-01
  1.9160535117E+04  1.0371760842E+01  5.5989262747E+00  8.6054021317E-01  6.9585448661E-01  7.6282683865E-01
  1.9257525084E+04  1.0448718362E+01  5.5958702913E+00  8.7390043293E-01  7.0486874354E-01  7.6464429753E-01
  1.9354515050E+04  1.0526124091E+01  5.5928999911E+00  8.8739896095E-01  7.1393450668E-01  7.6644600183E-01
  1.9451505017E+04  1.0603856696E+01  5.5899828688E+00  9.0103651877E-01  7.2305028930E-01  7.6823203591E-01
  1.9548494983E+04  1.0681772422E+01  5.5870817660E+00  9.1481382802E-01  7.3221433538E-01  7.7000246207E-01
  1.9645484950E+04  1.0759962747E+01  5.5842196835E+00  9.2873161038E-01  7.4142696702E-01  7.7175735009E-01
  1.9742474916E+04  1.0838660161E+01  5.5814541555E+00  9.4279058761E-01  7.5068986252E-01  7.7349677529E-01
  1.9839464883E+04  1.0917543255E+01  5.5787035401E+00  9.5699148153E-01  7.5999958254E-01  7.7522081566E-01
  1.9936454849E+04  1.0996611555E+01  5.5759676848E+00  9.7133501401E-01  7.6935558993E-01  7.7692955179E-01
  2.0033444816E+04  1.1076171913E+01  5.5733220051E+00  9.8584789690E-01  7.7877655548E-01  7.7862306668E-01
  2.0130434783E+04  1.1156031349E+01  5.5707176511E+00  1.0005555406E+00  7.8827521701E-01  7.8030144565E-01
  2.0227424749E+04  1.1236078577E+01  5.5681270231E+00  1.0154099359E+00  7.9781936683E-01  7.8196477613E-01
  2.0324414716E+04  1.1316391341E+01  5.5655688743E+00  1.0304118272E+00  8.0740923933E-01  7.8361314386E-01
  2.0421404682E+04  1.1397235460E+01  5.5631064775E+00  1.0455619592E+00  8.1704704568E-01  7.8524663112E-01
  2.0518394649E+04  1.1478269968E+01  5.5606568297E+00  1.0608610767E+00  8.2672879906E-01  7.8686532208E-01
  2.0615384615E+04  1.1559494411E+01  5.5582198051E+00  1.0763099245E+00  8.3645392622E-01  7.8846930311E-01
  2.0712374582E+04  1.1641152806E+01  5.5558528421E+00  1.0919092475E+00  8.4622447667E-01  7.9005866267E-01
  2.0809364548E+04  1.1723182639E+01  5.5535400345E+00  1.1076597911E+00  8.5603929446E-01  7.9163349123E-01
  2.0906354515E+04  1.1805405023E+01  5.5512389377E+00  1.1235623003E+00  8.6589590269E-01  7.9319388108E-01
  2.1003344482E+04  1.1887819514E+01  5.5489494385E+00  1.1396175207E+00  8.7579371337E-01  7.9473993299E-01
  2.1100334448E+04  1.1970812443E+01  5.5467602405E+00  1.1558261977E+00  8.8573651684E-01  7.9627178685E-01
  2.1197324415E+04  1.2054040696E+01  5.5445911770E+00  1.1721890771E+00  8.9571995005E-01  7.9778953634E-01
  2.1294314381E+04  1.2137463690E+01  5.5424328579E+00  1.1887069047E+00  9.0574296676E-01  7.9929326654E-01
  2.1391304348E+04  1.2221154222E+01  5.5403017082E+00  1.2053804262E+00  9.1580582923E-01  8.0078306456E-01
  2.1488294314E+04  1.2305396141E+01  5.5382609644E+00  1.2222103879E+00  9.2591135474E-01  8.0225901939E-01
  2.1585284281E+04  1.2389835447E+01  5.5362301575E+00  1.2391975358E+00  9.3605482301E-01  8.0372122180E-01
  2.1682274247E+04  1.2474471711E+01  5.5342091951E+00  1.2563426163E+00  9.4623562613E-01  8.0516976419E-01
  2.1779264214E+04  1.2559465056E+01  5.5322333489E+00  1.2736463759E+00  9.5645514134E-01  8.0660474054E-01
  2.1876254181E+04  1.2644928349E+01  5.5303265537E+00  1.2911095609E+00  9.6671424379E-01  8.0802624626E-01
  2.1973244147E+04  1.2730591264E+01  5.5284288465E+00  1.3087329182E+00  9.7700901591E-01  8.0943437810E-01
  2.2070234114E+04  1.2816453383E+01  5.5265401443E+00  1.3265171944E+00  9.8733884109E-01  8.1082923405E-01
  2.2167224080E+04  1.2902734946E+01  5.5247078245E+00  1.3444631366E+00  9.9770596748E-01  8.1221091325E-01
  2.2264214047E+04  1.2989432064E+01  5.5229300689E+00  1.3625714918E+00  1.0081098247E+00  8.1357951589E-01
  2.2361204013E+04  1.3076331066E+01  5.5211606092E+00  1.3808436838E+00  1.0185474200E+00  8.1493514309E-01
  2.2458193980E+04  1.3163431542E+01  5.5193993711E+00  1.3994108325E+00  1.0290886270E+00  8.1627789631E-01
  2.2555183946E+04  1.3250985504E+01  5.5176993157E+00  1.4181456019E+00  1.0396661162E+00  8.1760786980E-01
  2.2652173913E+04  1.3338928815E+01  5.5160459772E+00  1.4370487693E+00  1.0502784849E+00  8.1892515346E-01
  2.2749163880E+04  1.3427076297E+01  5.5144001950E+00  1.4561211126E+00  1.0609226065E+00  8.2022983854E-01
  2.2846153846E+04  1.3515427552E+01  5.5127619025E+00  1.4753634093E+00  1.0715978414E+00  8.2152201759E-01
  2.2943143813E+04  1.3604236862E+01  5.5111833280E+00  1.4947764377E+00  1.0823071772E+00  8.2280178436E-01
  2.3040133779E+04  1.3693438649E+01  5.5096500495E+00  1.5143609759E+00  1.0930491477E+00  8.2406923370E-01
  2.3137123746E+04  1.3782846921E+01  5.5081236358E+00  1.5341178023E+00  1.1038204948E+00  8.2532446147E-01
  2.3234113712E+04  1.3872461288E+01  5.5066040276E+00  1.5540476956E+00  1.1146205759E+00  8.2656756448E-01
  2.3331103679E+04  1.3962507663E+01  5.5051365954E+00  1.5741514345E+00  1.1254521165E+00  8.2779864034E-01
  2.3428093645E+04  1.4052980120E+01  5.5037192654E+00  1.5944297981E+00  1.1363144917E+00  8.2901778744E-01
  2.3525083612E+04  1.4143661400E+01  5.5023081535E+00  1.6148835656E+00  1.1472038626E+00  8.3022510485E-01
  2.3622073579E+04  1.4234551124E+01  5.5009032070E+00  1.6355135163E+00  1.1581195860E+00  8.3142069221E-01
  2.3719063545E+04  1.4325815045E+01  5.4995369925E+00  1.6563204298E+00  1.1690635983E+00  8.3260464969E-01
  2.3816053512E+04  1.4417570272E+01  5.4982317278E+00  1.6773050860E+00  1.1800371737E+00  8.3377707753E-01
  2.3913043478E+04  1.4509536686E+01  5.4969320759E+00  1.6984682648E+00  1.1910353675E+00  8.3493807010E-01
  2.4010033445E+04  1.4601713915E+01  5.4956379900E+00  1.7198107463E+00  1.2020575375E+00  8.3608771774E-01
  2.4107023411E+04  1.4694174624E+01  5.4943634543E+00  1.7413333109E+00  1.2131042233E+00  8.3722611158E-01
  2.4204013378E+04  1.4787224625E+01  5.4931665838E+00  1.7630367391E+00  1.2241798169E+00  8.3835334357E-01
  2.4301003344E+04  1.4880488202E+01  5.4919747590E+00  1.7849218116E+00  1.2352776626E+00  8.3946950638E-01
  2.4397993311E+04  1.4973964988E+01  5.4907879385E+00  1.8069893094E+00  1.2463971210E+00  8.4057469331E-01
  2.4494983278E+04  1.5067654621E+01  5.4896060816E+00  1.8292400135E+00  1.2575375537E+00  8.4166899828E-01
  2.4591973244E+04  1.5161957165E+01  5.4885039525E+00  1.8516747053E+00  1.2687051235E+00  8.4275251565E-01
  2.4688963211E+04  1.5256529832E+01  5.4874165162E+00  1.8742941661E+00  1.2798935081E+00  8.4382534027E-01
  2.4785953177E+04  1.5351318126E+01  5.4863335577E+00  1.8970991776E+00  1.2911011620E+00  8.4488756733E-01
  2.4882943144E+04  1.5446321695E+01  5.4852550411E+00  1.9200905216E+00  1.3023274518E+00  8.4593929230E-01
  2.4979933110E+04  1.5541779261E+01  5.4842248358E+00  1.9432689801E+00  1.3135759721E+00  8.4698061092E-01
  2.5076923077E+04  1.5637670804E+01  5.4832384866E+00  1.9667375051E+00  1.3248922161E+00  8.4801162023E-01
  2.5173913043E+04  1.5733780398E+01  5.4822561213E+00  1.9904237231E+00  1.3362378541E+00  8.4903243687E-01
  2.5270903010E+04  1.5830107699E+01  5.4812777086E+00  2.0143020586E+00  1.3476001948E+00  8.5004315810E-01
  2.5367892977E+04  1.5926693995E+01  5.4803109399E+00  2.0383733187E+00  1.3589793816E+00  8.5104387179E-01
  2.5464882943E+04  1.6023900376E+01  5.4794222595E+00  2.0626383109E+00  1.3703816112E+00  8.5203466625E-01
  2.5561872910E+04  1.6121327125E+01  5.4785371008E+00  2.0870978427E+00  1.3817988541E+00  8.5301563012E-01
  2.5658862876E+04  1.6218973903E+01  5.4776554364E+00  2.1117527220E+00  1.3932304824E+00  8.5398685236E-01
  2.5755852843E+04  1.6316840372E+01  5.4767772396E+00  2.1366037570E+00  1.4046758699E+00  8.5494842213E-01
  2.5852842809E+04  1.6415176039E+01  5.4759496238E+00  2.1616517558E+00  1.4161394050E+00  8.5590042879E-01
  2.5949832776E+04  1.6513909344E+01  5.4751583409E+00  2.1868975271E+00  1.4276191468E+00  8.5684296181E-01
  2.6046822742E+04  1.6612864844E+01  5.4743701237E+00  2.2123418798E+00  1.4391109927E+00  8.5777611073E-01
  2.6143812709E+04  1.6712042210E+01  5.4735849490E+00  2.2379856228E+00  1.4506143269E+00  8.5869996512E-01
  2.6240802676E+04  1.6811441972E+01  5.4728029602E+00  2.2638295654E+00  1.4621285545E+00  8.5961461452E-01
  2.6337792642E+04  1.6911470157E+01  5.4721023870E+00  2.2898745171E+00  1.4736618263E+00  8.6052014629E-01
  2.6434782609E+04  1.7011722548E+01  5.4714044782E+00  2.3161212877E+00  1.4852049628E+00  8.6141664008E-01
  2.6531772575E+04  1.7112198820E+01  5.4707092139E+00  2.3425706872E+00  1.4967573596E+00  8.6230417906E-01
  2.6628762542E+04  1.7212898653E+01  5.4700165745E+00  2.3692235257E+00  1.5083184156E+00  8.6318284705E-01
  2.6725752508E+04  1.7313953079E+01  5.4693526068E+00  2.3960806138E+00  1.5198905575E+00  8.6405272795E-01
  2.6822742475E+04  1.7415489485E+01  5.4687420200E+00  2.4231427620E+00  1.5314762211E+00  8.6491390569E-01
  2.6919732441E+04  1.7517251631E+01  5.4681337049E+00  2.4504107812E+00  1.5430689653E+00  8.6576646392E-01
  2.7016722408E+04  1.7619239201E+01  5.4675276448E+00  2.4778854827E+00  1.5546682020E+00  8.6661048420E-01
  2.7113712375E+04  1.7721451884E+01  5.4669238235E+00  2.5055676777E+00  1.5662733462E+00  8.6744604788E-01
  2.7210702341E+04  1.7824108938E+01  5.4663670321E+00  2.5334581778E+00  1.5778892705E+00  8.6827321521E-01
  2.7307692308E+04  1.7927142901E+01  5.4658428457E+00  2.5615577948E+00  1.5895138342E+00  8.6909233155E-01
  2.7404682274E+04  1.8030403992E+01  5.4653205678E+00  2.5898676166E+00  1.6011428827E+00  8.6990428771E-01
  2.7501672241E+04  1.8133891904E+01  5.4648001847E+00  2.6183893589E+00  1.6127761862E+00  8.7070984693E-01
  2.7598662207E+04  1.8237606334E+01  5.4642816828E+00  2.6471226817E+00  1.6244127338E+00  8.7150903420E-01
  2.7695652174E+04  1.8341816076E+01  5.4638217685E+00  2.6760683981E+00  1.6360591889E+00  8.7230187655E-01
  2.7792642140E+04  1.8446335469E+01  5.4633806057E+00  2.7052273210E+00  1.6477101295E+00  8.7308843102E-01
  2.7889632107E+04  1.8551083231E+01  5.4629410153E+00  2.7346002639E+00  1.6593628409E+00  8.7386875416E-01
  2.7986622074E+04  1.8656059063E+01  5.4625029861E+00  2.7641880403E+00  1.6710167720E+00  8.7464290207E-01
  2.8083612040E+04  1.8761262671E+01  5.4620665073E+00  2.7939914641E+00  1.6826713753E+00  8.7541093043E-01
  2.8180602007E+04  1.8866977654E+01  5.4616936799E+00  2.8240113493E+00  1.6943343746E+00  8.7617289444E-01
  2.8277591973E+04  1.8972968906E+01  5.4613323572E+00  2.8542485100E+00  1.7059985120E+00  8.7692884886E-01
  2.8374581940E+04  1.9079189619E+01  5.4609722956E+00  2.8847037608E+00  1.7176619073E+00  8.7767884799E-01
  2.8471571906E+04  1.9185639502E+01  5.4606134862E+00  2.9153779163E+00  1.7293240299E+00  8.7842294569E-01
  2.8568561873E+04  1.9292318268E+01  5.4602559205E+00  2.9462717914E+00  1.7409843533E+00  8.7916119537E-01
  2.8665551839E+04  1.9399493943E+01  5.4599608655E+00  2.9773862012E+00  1.7526508592E+00  8.7989364999E-01
  2.8762541806E+04  1.9506942059E+01  5.4596763784E+00  3.0087219610E+00  1.7643160418E+00  8.8062036206E-01
  2.8859531773E+04  1.9614620577E+01  5.4593928638E+00  3.0402798862E+00  1.7759780730E+00  8.8134138364E-01
  2.8956521739E+04  1.9722529215E+01  5.4591103151E+00  3.0720607928E+00  1.7876364439E+00  8.8205676635E-01
  2.9053511706E+04  1.9830667690E+01  5.4588287258E+00  3.1040654965E+00  1.7992906500E+00  8.8276656136E-01
  2.9150501672E+04  1.9939262822E+01  5.4586025734E+00  3.1362948136E+00  1.8109480611E+00  8.8347081941E-01
  2.9247491639E+04  2.0048151404E+01  5.4583920831E+00  3.1687495603E+00  1.8226026455E+00  8.8416959077E-01
  2.9344481605E+04  2.0157271177E+01  5.4581822977E+00  3.2014305534E+00  1.8342517777E+00  8.8486292530E-01
  2.9441471572E+04  2.0266621867E+01  5.4579732126E+00  3.2343386095E+00  1.8458949714E+00  8.8555087240E-01
  2.9538461538E+04  2.0376203197E+01  5.4577648231E+00  3.2674745456E+00  1.8575317447E+00  8.8623348105E-01
  2.9635451505E+04  2.0486180297E+01  5.4575991206E+00  3.3008391790E+00  1.8691679234E+00  8.8691079979E-01
  2.9732441472E+04  2.0596491593E+01  5.4574599418E+00  3.3344333271E+00  1.8808007965E+00  8.8758287680E-01
  2.9829431438E+04  2.0707034716E+01  5.4573212198E+00  3.3682578073E+00  1.8924260288E+00  8.8824976063E-01
  2.9926421405E+04  2.0817809398E+01  5.4571829516E+00  3.4023134377E+00  1.9040431573E+00  8.8891149970E-01
  3.0023411371E+04  2.0928815371E+01  5.4570451343E+00  3.4366625148E+00  1.9156708262E+00  8.8956814191E-01
  3.0120401338E+04  2.1040144107E+01  5.4569318048E+00  3.4714402876E+00  1.9273533365E+00  8.9021973473E-01
  3.0217391304E+04  2.1151867374E+01  5.4568613539E+00  3.5064560247E+00  1.9390332661E+00  8.9086632513E-01
  3.0314381271E+04  2.1263823010E+01  5.4567911296E+00  3.5417105781E+00  1.9507035477E+00  8.9150795962E-01
  3.0411371237E+04  2.1376010755E+01  5.4567211305E+00  3.5772048001E+00  1.9623637314E+00  8.9214468423E-01
  3.0508361204E+04  2.1488430346E+01  5.4566513552E+00  3.6129395434E+00  1.9740133719E+00  8.9277654455E-01
  3.0605351171E+04  2.1601085081E+01  5.4565826911E+00  3.6489156607E+00  1.9856521765E+00  8.9340358570E-01
  3.0702341137E+04  2.1714229388E+01  5.4565784192E+00  3.6851340053E+00  1.9972903473E+00  8.9402585234E-01
  3.0799331104E+04  2.1827606664E+01  5.4565741609E+00  3.7215954306E+00  2.0089168652E+00  8.9464338872E-01
  3.0896321070E+04  2.1941216655E+01  5.4565699159E+00  3.7583007901E+00  2.0205313048E+00  8.9525623859E-01
  3.0993311037E+04  2.2055059103E+01  5.4565656843E+00  3.7952509380E+00  2.0321332453E+00  8.9586444529E-01
  3.1090301003E+04  2.2169133757E+01  5.4565614658E+00  3.8324467284E+00  2.0437222710E+00  8.9646805173E-01
  3.1187290970E+04  2.2283596325E+01  5.4565938045E+00  3.8698890158E+00  2.0553044824E+00  8.9706710037E-01
