#[MATERIAL DEFINITION FOR MC-GPU: interaction mean free path and sampling data from PENELOPE 2006]
#[MATERIAL NAME]
# MATERIAL22                                                    
#[NOMINAL DENSITY (g/cm^3)]
#   1.00000000
#[NUMBER OF DATA VALUES]
#   1495
#[MEAN FREE PATHS (cm) (ie, average distance between interactions)]
#[Energy (eV)     | Rayleigh        | Compton         | Photoelectric   | TOTAL (+pair prod) (cm) | Rayleigh: max cumul prob F^2]
  5.0000000000E+03  1.1946386248E+00  9.7338455966E+00  5.5757373746E-03  5.5466721468E-03  2.5617891083E-01
  5.0969899666E+03  1.2164538735E+00  9.6366308445E+00  5.8727764298E-03  5.8410176134E-03  2.6107073091E-01
  5.1939799331E+03  1.2384132198E+00  9.5434215356E+00  6.1795419231E-03  6.1449006271E-03  2.6591966835E-01
  5.2909698997E+03  1.2605145795E+00  9.4539854880E+00  6.4961595573E-03  6.4584376829E-03  2.7072693171E-01
  5.3879598662E+03  1.2827557930E+00  9.3681071775E+00  6.8227542304E-03  6.7817441998E-03  2.7549365031E-01
  5.4849498328E+03  1.3051346343E+00  9.2855862746E+00  7.1595274600E-03  7.1150109804E-03  2.8022087976E-01
  5.5819397993E+03  1.3276488195E+00  9.2062363329E+00  7.5074582427E-03  7.4591959237E-03  2.8490968250E-01
  5.6789297659E+03  1.3502960155E+00  9.1298836113E+00  7.8658077003E-03  7.8135600483E-03  2.8956111175E-01
  5.7759197324E+03  1.3730738479E+00  9.0563660153E+00  8.2346994867E-03  8.1782162639E-03  2.9417610898E-01
  5.8729096990E+03  1.3959799090E+00  8.9855321416E+00  8.6142565342E-03  8.5532764594E-03  2.9875557431E-01
  5.9698996656E+03  1.4190117686E+00  8.9172404093E+00  9.0046010696E-03  8.9388515137E-03  3.0330041437E-01
  6.0668896321E+03  1.4421671651E+00  8.8513579179E+00  9.4066807515E-03  9.3358650452E-03  3.0781147848E-01
  6.1638795987E+03  1.4654443333E+00  8.7877591632E+00  9.8202295825E-03  9.7440439669E-03  3.1228952361E-01
  6.2608695652E+03  1.4888419661E+00  8.7263255890E+00  1.0246638745E-02  1.0164746373E-02  3.1673530614E-01
  6.3578595318E+03  1.5123587448E+00  8.6669459734E+00  1.0689344904E-02  1.0601339561E-02  3.2114960260E-01
  6.4548494983E+03  1.5360013644E+00  8.6095636428E+00  1.1143990361E-02  1.1049521712E-02  3.2553305124E-01
  6.5518394649E+03  1.5597705917E+00  8.5540899571E+00  1.1612889012E-02  1.1511554664E-02  3.2988620863E-01
  6.6488294314E+03  1.5836568212E+00  8.5003830460E+00  1.2094966748E-02  1.1986367393E-02  3.3420964151E-01
  6.7458193980E+03  1.6076585126E+00  8.4483556424E+00  1.2589594878E-02  1.2473328539E-02  3.3850392555E-01
  6.8428093645E+03  1.6317740832E+00  8.3979256230E+00  1.3096911051E-02  1.2972559722E-02  3.4276964415E-01
  6.9397993311E+03  1.6560019126E+00  8.3490156491E+00  1.3617052394E-02  1.3484181625E-02  3.4700735398E-01
  7.0367892977E+03  1.6803412826E+00  8.3015576729E+00  1.4151097139E-02  1.4009236904E-02  3.5121745856E-01
  7.1337792642E+03  1.7048190411E+00  8.2556243463E+00  1.4699884027E-02  1.4548533620E-02  3.5540033102E-01
  7.2307692308E+03  1.7294070487E+00  8.2110067282E+00  1.5262057139E-02  1.5100724702E-02  3.5955635494E-01
  7.3277591973E+03  1.7541040172E+00  8.1676425419E+00  1.5837755085E-02  1.5665930274E-02  3.6368592293E-01
  7.4247491639E+03  1.7789085762E+00  8.1254730605E+00  1.6427115996E-02  1.6244269521E-02  3.6778943517E-01
  7.5217391304E+03  1.8038365764E+00  8.0845194768E+00  1.7030277534E-02  1.6835862524E-02  3.7186724154E-01
  7.6187290970E+03  1.8288932453E+00  8.0447511635E+00  1.7647376902E-02  1.7440827586E-02  3.7591959585E-01
  7.7157190635E+03  1.8540556861E+00  8.0060208606E+00  1.8278550845E-02  1.8059278954E-02  3.7994675294E-01
  7.8127090301E+03  1.8793222438E+00  7.9682815647E+00  1.8923935666E-02  1.8691332105E-02  3.8394897693E-01
  7.9096989967E+03  1.9047193467E+00  7.9316000018E+00  1.9583667223E-02  1.9337105134E-02  3.8792654032E-01
  8.0066889632E+03  1.9302391243E+00  7.8959005021E+00  2.0258709557E-02  1.9997518659E-02  3.9187970336E-01
  8.1036789298E+03  1.9558606897E+00  7.8610647494E+00  2.0959922601E-02  2.0683125182E-02  3.9580864819E-01
  8.2006688963E+03  1.9815913087E+00  7.8270878228E+00  2.1676585632E-02  2.1383452483E-02  3.9971354550E-01
  8.2976588629E+03  2.0074684938E+00  7.7940661175E+00  2.2408848950E-02  2.2098631528E-02  4.0359457506E-01
  8.3946488294E+03  2.0334455466E+00  7.7617982547E+00  2.3156862498E-02  2.2828780217E-02  4.0745192487E-01
  8.4916387960E+03  2.0595224215E+00  7.7302587047E+00  2.3920775871E-02  2.3574021955E-02  4.1128577398E-01
  8.5886287625E+03  2.0857582068E+00  7.6996081779E+00  2.4700738315E-02  2.4334489125E-02  4.1509624491E-01
  8.6856187291E+03  2.1120913689E+00  7.6696167093E+00  2.5496898736E-02  2.5110293717E-02  4.1888345462E-01
  8.7826086957E+03  2.1385274543E+00  7.6402804368E+00  2.6309405700E-02  2.5901557360E-02  4.2264752850E-01
  8.8795986622E+03  2.1651216441E+00  7.6117348371E+00  2.7138407444E-02  2.6708410189E-02  4.2638860112E-01
  8.9765886288E+03  2.1918100246E+00  7.5837664257E+00  2.7984051874E-02  2.7530959797E-02  4.3010682101E-01
  9.0735785953E+03  2.2186180171E+00  7.5564276004E+00  2.8851012127E-02  2.8373706173E-02  4.3380225774E-01
  9.1705685619E+03  2.2455691431E+00  7.5297554269E+00  2.9736613150E-02  2.9234034378E-02  4.3747496496E-01
  9.2675585284E+03  2.2726107555E+00  7.5035898516E+00  3.0639603743E-02  3.0110696032E-02  4.4112500516E-01
  9.3645484950E+03  2.2998042024E+00  7.4780680448E+00  3.1560136719E-02  3.1003824966E-02  4.4475244910E-01
  9.4615384615E+03  2.3271103163E+00  7.4530685115E+00  3.2498364600E-02  3.1913532640E-02  4.4835737521E-01
  9.5585284281E+03  2.3545226229E+00  7.4285607760E+00  3.3454439622E-02  3.2839936247E-02  4.5193986915E-01
  9.6555183946E+03  2.3820956379E+00  7.4046506147E+00  3.4428513735E-02  3.3783166882E-02  4.5550002324E-01
  9.7525083612E+03  2.4097531866E+00  7.3811479626E+00  3.5420738609E-02  3.4743323063E-02  4.5903793050E-01
  9.8494983278E+03  2.4375735986E+00  7.3582091827E+00  3.6431265637E-02  3.5720540687E-02  4.6255362895E-01
  9.9464882943E+03  2.4654984293E+00  7.3356901405E+00  3.7460245938E-02  3.6714919981E-02  4.6604713662E-01
  1.0043478261E+04  2.4935508021E+00  7.3136265682E+00  3.8512584284E-02  3.7731144235E-02  4.6951848082E-01
  1.0140468227E+04  2.5217446522E+00  7.2920290677E+00  3.9589882539E-02  3.8770711620E-02  4.7296769643E-01
  1.0237458194E+04  2.5500339129E+00  7.2707955534E+00  4.0686582639E-02  3.9828236279E-02  4.7639482555E-01
  1.0334448161E+04  2.5784986029E+00  7.2500640401E+00  4.1802844051E-02  4.0903861209E-02  4.7979991702E-01
  1.0431438127E+04  2.6070373437E+00  7.2296331791E+00  4.2938826013E-02  4.1997673493E-02  4.8318302604E-01
  1.0528428094E+04  2.6357671048E+00  7.2097032943E+00  4.4094687535E-02  4.3109827311E-02  4.8654421088E-01
  1.0625418060E+04  2.6645756694E+00  7.1900618862E+00  4.5270587401E-02  4.4240402527E-02  4.8988349751E-01
  1.0722408027E+04  2.6935566872E+00  7.1708612340E+00  4.6466684173E-02  4.5389545686E-02  4.9320089686E-01
  1.0819397993E+04  2.7226360959E+00  7.1519634176E+00  4.7683136194E-02  4.6557345558E-02  4.9649642737E-01
  1.0916387960E+04  2.7518735595E+00  7.1334578301E+00  4.8920101585E-02  4.7743936632E-02  4.9977011435E-01
  1.1013377926E+04  2.7812244964E+00  7.1152606994E+00  5.0177738255E-02  4.8949414918E-02  5.0302198963E-01
  1.1110367893E+04  2.8107236027E+00  7.0974181735E+00  5.1456203896E-02  5.0173904839E-02  5.0625209122E-01
  1.1207357860E+04  2.8403464075E+00  7.0798815460E+00  5.2758920341E-02  5.1420608076E-02  5.0946046300E-01
  1.1304347826E+04  2.8701123610E+00  7.0626720707E+00  5.4091531066E-02  5.2694839753E-02  5.1264714211E-01
  1.1401337793E+04  2.9000070200E+00  7.0457582780E+00  5.5445939737E-02  5.3988853451E-02  5.1581214214E-01
  1.1498327759E+04  2.9300450321E+00  7.0291536772E+00  5.6822311915E-02  5.5302769439E-02  5.1895547994E-01
  1.1595317726E+04  2.9602111700E+00  7.0128273747E+00  5.8220812981E-02  5.6636693935E-02  5.2207717875E-01
  1.1692307692E+04  2.9905264584E+00  6.9968011658E+00  5.9641608147E-02  5.7990748416E-02  5.2517726799E-01
  1.1789297659E+04  3.0209633285E+00  6.9810291607E+00  6.1084862450E-02  5.9365030879E-02  5.2825578289E-01
  1.1886287625E+04  3.0515611167E+00  6.9655564257E+00  6.2550740757E-02  6.0759669987E-02  5.3131276428E-01
  1.1983277592E+04  3.0822675923E+00  6.9503075190E+00  6.4039407766E-02  6.2174748835E-02  5.3434824915E-01
  1.2080267559E+04  3.1131531082E+00  6.9353647872E+00  6.5551028009E-02  6.3610410584E-02  5.3736225800E-01
  1.2177257525E+04  3.1441276729E+00  6.9206096314E+00  6.7085765850E-02  6.5066715340E-02  5.4035481493E-01
  1.2274247492E+04  3.1753061484E+00  6.9061747732E+00  6.8643785488E-02  6.6543829562E-02  5.4332594998E-01
  1.2371237458E+04  3.2065468867E+00  6.8918857413E+00  7.0225250960E-02  6.8041780706E-02  5.4627569884E-01
  1.2468227425E+04  3.2380235668E+00  6.8779378908E+00  7.1830326140E-02  6.9560768988E-02  5.4920410264E-01
  1.2565217391E+04  3.2695617340E+00  6.8641260216E+00  7.3470962051E-02  7.1111840206E-02  5.5211121052E-01
  1.2662207358E+04  3.3013086466E+00  6.8506090922E+00  7.5141830335E-02  7.2690006562E-02  5.5499708830E-01
  1.2759197324E+04  3.3331520874E+00  6.8372584003E+00  7.6837469593E-02  7.4290024037E-02  5.5786176658E-01
  1.2856187291E+04  3.3651649166E+00  6.8241470704E+00  7.8558053698E-02  7.5912043420E-02  5.6070527375E-01
  1.2953177258E+04  3.3973199439E+00  6.8112411883E+00  8.0303756403E-02  7.7556153610E-02  5.6352764388E-01
  1.3050167224E+04  3.4295959868E+00  6.7985136730E+00  8.2074751342E-02  7.9222444443E-02  5.6632891650E-01
  1.3147157191E+04  3.4620689807E+00  6.7860371687E+00  8.3871212026E-02  8.0911070137E-02  5.6910913634E-01
  1.3244147157E+04  3.4946073718E+00  6.7736750143E+00  8.5693311850E-02  8.2622042449E-02  5.7186835315E-01
  1.3341137124E+04  3.5274023609E+00  6.7616109277E+00  8.7541224091E-02  8.4355596067E-02  5.7460662147E-01
  1.3438127090E+04  3.5602666156E+00  6.7496577864E+00  8.9415121907E-02  8.6111697831E-02  5.7732400039E-01
  1.3535117057E+04  3.5933227074E+00  6.7379287226E+00  9.1315178343E-02  8.7890534791E-02  5.8002055338E-01
  1.3632107023E+04  3.6265192884E+00  6.7263710170E+00  9.3241566326E-02  8.9692166867E-02  5.8269634809E-01
  1.3729096990E+04  3.6598320847E+00  6.7149583747E+00  9.5194944211E-02  9.1517119106E-02  5.8535145616E-01
  1.3826086957E+04  3.6933674744E+00  6.7037832064E+00  9.7175849466E-02  9.3365906112E-02  5.8798595019E-01
  1.3923076923E+04  3.7269725007E+00  6.6927045621E+00  9.9183645022E-02  9.5237749295E-02  5.9059987676E-01
  1.4020066890E+04  3.7608126783E+00  6.6818642761E+00  1.0121850383E-01  9.7132877361E-02  5.9319327744E-01
  1.4117056856E+04  3.7947646157E+00  6.6711511372E+00  1.0328059874E-01  9.9051279674E-02  5.9576619900E-01
  1.4214046823E+04  3.8288558056E+00  6.6605854804E+00  1.0537010247E-01  1.0099306858E-01  5.9831869325E-01
  1.4311036789E+04  3.8631612055E+00  6.6502264259E+00  1.0748718766E-01  1.0295840060E-01  6.0085081676E-01
  1.4408026756E+04  3.8975391443E+00  6.6399532895E+00  1.0963202681E-01  1.0494723589E-01  6.0336263071E-01
  1.4505016722E+04  3.9321625696E+00  6.6299034776E+00  1.1180479234E-01  1.0695982011E-01  6.0585420067E-01
  1.4602006689E+04  3.9669022128E+00  6.6199693380E+00  1.1400565653E-01  1.0899611933E-01  6.0832559643E-01
  1.4698996656E+04  4.0017683668E+00  6.6101564834E+00  1.1623479159E-01  1.1105622545E-01  6.1077689178E-01
  1.4795986622E+04  4.0368763247E+00  6.6005511854E+00  1.1849236961E-01  1.1314033620E-01  6.1320816435E-01
  1.4892976589E+04  4.0720598829E+00  6.5910224675E+00  1.2077856255E-01  1.1524836744E-01  6.1561949218E-01
  1.4989966555E+04  4.1074602545E+00  6.5816745741E+00  1.2309354231E-01  1.1738054309E-01  6.1801093739E-01
  1.5086956522E+04  4.1430201340E+00  6.5724612930E+00  1.2546250379E-01  1.1955960900E-01  6.2038256012E-01
  1.5183946488E+04  4.1786570367E+00  6.5633198256E+00  1.2786432574E-01  1.2176615068E-01  6.2273442511E-01
  1.5280936455E+04  4.2145911095E+00  6.5544094678E+00  1.3029635018E-01  1.2399791012E-01  6.2506660151E-01
  1.5377926421E+04  4.2506088577E+00  6.5455710345E+00  1.3275876081E-01  1.2625473446E-01  6.2737916263E-01
  1.5474916388E+04  4.2867674182E+00  6.5368451442E+00  1.3525174127E-01  1.2853676694E-01  6.2967218575E-01
  1.5571906355E+04  4.3231667369E+00  6.5283014668E+00  1.3777547513E-01  1.3084420651E-01  6.3194575200E-01
  1.5668896321E+04  4.3596462359E+00  6.5198219020E+00  1.4033014589E-01  1.3317694055E-01  6.3419994610E-01
  1.5765886288E+04  4.3963243805E+00  6.5114904817E+00  1.4291593701E-01  1.3553518952E-01  6.3643485626E-01
  1.5862876254E+04  4.4331877556E+00  6.5032946451E+00  1.4553303185E-01  1.3791901513E-01  6.3865057389E-01
  1.5959866221E+04  4.4701326989E+00  6.4951589895E+00  1.4818161375E-01  1.4032835784E-01  6.4084718536E-01
  1.6056856187E+04  4.5073231581E+00  6.4871986489E+00  1.5086186595E-01  1.4276350502E-01  6.4302476620E-01
  1.6153846154E+04  4.5446541345E+00  6.4793363726E+00  1.5357397165E-01  1.4522439133E-01  6.4518339461E-01
  1.6250836120E+04  4.5820680502E+00  6.4715306050E+00  1.5631811399E-01  1.4771100491E-01  6.4732315264E-01
  1.6347826087E+04  4.6197632976E+00  6.4639191644E+00  1.5909447604E-01  1.5022369278E-01  6.4944412600E-01
  1.6444816054E+04  4.6575652565E+00  6.4563770529E+00  1.6190324081E-01  1.5276227740E-01  6.5154640389E-01
  1.6541806020E+04  4.6954535567E+00  6.4488894401E+00  1.6474459126E-01  1.5532678999E-01  6.5363007884E-01
  1.6638795987E+04  4.7336437788E+00  6.4416044135E+00  1.6761871027E-01  1.5791761805E-01  6.5569524650E-01
  1.6735785953E+04  4.7719199408E+00  6.4343698873E+00  1.7052578068E-01  1.6053450119E-01  6.5774200554E-01
  1.6832775920E+04  4.8102968696E+00  6.4271956323E+00  1.7346598526E-01  1.6317751831E-01  6.5977045671E-01
  1.6929765886E+04  4.8489630375E+00  6.4202094270E+00  1.7643950673E-01  1.6584703064E-01  6.6178068759E-01
  1.7026755853E+04  4.8877164636E+00  6.4132706601E+00  1.7944652774E-01  1.6854277473E-01  6.6377278707E-01
  1.7123745819E+04  4.9265739532E+00  6.4063903853E+00  1.8248723089E-01  1.7126482985E-01  6.6574685049E-01
  1.7220735786E+04  4.9657189865E+00  6.3996916809E+00  1.8556179873E-01  1.7401356362E-01  6.6770297616E-01
  1.7317725753E+04  5.0049525810E+00  6.3930375444E+00  1.8867041373E-01  1.7678869298E-01  6.6964126526E-01
  1.7414715719E+04  5.0442823751E+00  6.3864327781E+00  1.9181325832E-01  1.7959027799E-01  6.7156182168E-01
  1.7511705686E+04  5.0839090441E+00  6.3800109031E+00  1.9499347864E-01  1.8242132595E-01  6.7346475182E-01
  1.7608695652E+04  5.1236255615E+00  6.3736309022E+00  1.9823026555E-01  1.8529811116E-01  6.7535016448E-01
  1.7705685619E+04  5.1634316343E+00  6.3672922740E+00  2.0150251128E-01  1.8820200806E-01  6.7721817073E-01
  1.7802675585E+04  5.2035302149E+00  6.3611287949E+00  2.0481040611E-01  1.9113345509E-01  6.7907007145E-01
  1.7899665552E+04  5.2437323153E+00  6.3550129234E+00  2.0815414032E-01  1.9409214131E-01  6.8090759111E-01
  1.7996655518E+04  5.2840252477E+00  6.3489359341E+00  2.1153390413E-01  1.9707808305E-01  6.8273079129E-01
  1.8093645485E+04  5.3245791810E+00  6.3430087681E+00  2.1494988775E-01  2.0009167017E-01  6.8453972522E-01
  1.8190635452E+04  5.3652694099E+00  6.3371475186E+00  2.1840228133E-01  2.0313269681E-01  6.8633444843E-01
  1.8287625418E+04  5.4060517330E+00  6.3313228106E+00  2.2189127501E-01  2.0620110925E-01  6.8811501869E-01
  1.8384615385E+04  5.4470522512E+00  6.3256159677E+00  2.2541705889E-01  2.0929721713E-01  6.8988149591E-01
  1.8481605351E+04  5.4882330086E+00  6.3200003582E+00  2.2897982303E-01  2.1242098293E-01  6.9163394205E-01
  1.8578595318E+04  5.5295071075E+00  6.3144190883E+00  2.3257975747E-01  2.1557225121E-01  6.9337242099E-01
  1.8675585284E+04  5.5709453180E+00  6.3089172720E+00  2.3621705221E-01  2.1875121498E-01  6.9509699849E-01
  1.8772575251E+04  5.6126188591E+00  6.3035388097E+00  2.3989543900E-01  2.2196110980E-01  6.9680774208E-01
  1.8869565217E+04  5.6543869745E+00  6.2981926140E+00  2.4361348016E-01  2.2520023507E-01  6.9850472097E-01
  1.8966555184E+04  5.6962538782E+00  6.2928811739E+00  2.4736958682E-01  2.2846709949E-01  7.0018800598E-01
  1.9063545151E+04  5.7384223152E+00  6.2877318216E+00  2.5116395028E-01  2.3176223099E-01  7.0185766943E-01
  1.9160535117E+04  5.7806865444E+00  6.2826127830E+00  2.5499676180E-01  2.3508515698E-01  7.0351378511E-01
  1.9257525084E+04  5.8230462969E+00  6.2775237275E+00  2.5886821265E-01  2.3843589704E-01  7.0515642815E-01
  1.9354515050E+04  5.8656383579E+00  6.2725498167E+00  2.6277849404E-01  2.4181482896E-01  7.0678567500E-01
  1.9451505017E+04  5.9084006567E+00  6.2676504343E+00  2.6672779717E-01  2.4522182152E-01  7.0840160283E-01
  1.9548494983E+04  5.9512596862E+00  6.2627792190E+00  2.7071631319E-01  2.4865670021E-01  7.1000428020E-01
  1.9645484950E+04  5.9942616182E+00  6.2579645933E+00  2.7474423325E-01  2.5211960677E-01  7.1159376779E-01
  1.9742474916E+04  6.0375238024E+00  6.2532777547E+00  2.7881174845E-01  2.5561089002E-01  7.1317012790E-01
  1.9839464883E+04  6.0808839096E+00  6.2486173694E+00  2.8291904987E-01  2.5913011764E-01  7.1473342467E-01
  1.9936454849E+04  6.1243416809E+00  6.2439831601E+00  2.8706632856E-01  2.6267729774E-01  7.1628372407E-01
  2.0033444816E+04  6.1680505447E+00  6.2394681699E+00  2.9126324866E-01  2.6626080952E-01  7.1782109376E-01
  2.0130434783E+04  6.2119139390E+00  6.2350119333E+00  2.9551898073E-01  2.6988783211E-01  7.1934560301E-01
  2.0227424749E+04  6.2558761839E+00  6.2305802754E+00  2.9981594362E-01  2.7354332220E-01  7.2085732264E-01
  2.0324414716E+04  6.2999763759E+00  6.2261962244E+00  3.0415433556E-01  2.7722740568E-01  7.2235632493E-01
  2.0421404682E+04  6.3443482148E+00  6.2219376391E+00  3.0853435479E-01  2.8094051304E-01  7.2384268351E-01
  2.0518394649E+04  6.3888201089E+00  6.2177021238E+00  3.1295619957E-01  2.8468212019E-01  7.2531647332E-01
  2.0615384615E+04  6.4333918093E+00  6.2134894456E+00  3.1742006810E-01  2.8845222570E-01  7.2677777051E-01
  2.0712374582E+04  6.4781874813E+00  6.2093701929E+00  3.2192615860E-01  2.9225123641E-01  7.2822665240E-01
  2.0809364548E+04  6.5231752596E+00  6.2053246752E+00  3.2647466929E-01  2.9607906009E-01  7.2966319734E-01
  2.0906354515E+04  6.5682640806E+00  6.2013005868E+00  3.3106579838E-01  2.9993539553E-01  7.3108748474E-01
  2.1003344482E+04  6.6134537008E+00  6.1972977155E+00  3.3569974405E-01  3.0382023450E-01  7.3249959452E-01
  2.1100334448E+04  6.6589429487E+00  6.1934249388E+00  3.4037670450E-01  3.0773426139E-01  7.3389960124E-01
  2.1197324415E+04  6.7045551683E+00  6.1895836688E+00  3.4509687790E-01  3.1167687060E-01  7.3528757636E-01
  2.1294314381E+04  6.7502694552E+00  6.1857623010E+00  3.4986046244E-01  3.1564797793E-01  7.3666359265E-01
  2.1391304348E+04  6.7961236919E+00  6.1819809121E+00  3.5466765628E-01  3.1964770689E-01  7.3802772408E-01
  2.1488294314E+04  6.8422655993E+00  6.1783169634E+00  3.5951865758E-01  3.2367659211E-01  7.3938004576E-01
  2.1585284281E+04  6.8885108696E+00  6.1746716720E+00  3.6441366449E-01  3.2773395629E-01  7.4072063387E-01
  2.1682274247E+04  6.9348592685E+00  6.1710448599E+00  3.6935287515E-01  3.3181977951E-01  7.4204956558E-01
  2.1779264214E+04  6.9813950717E+00  6.1674796542E+00  3.7433648771E-01  3.3593436418E-01  7.4336691899E-01
  2.1876254181E+04  7.0281776496E+00  6.1640052654E+00  3.7936470030E-01  3.4007793234E-01  7.4467277306E-01
  2.1973244147E+04  7.0750646831E+00  6.1605481908E+00  3.8443771104E-01  3.4424992186E-01  7.4596720753E-01
  2.2070234114E+04  7.1220559429E+00  6.1571082682E+00  3.8955571804E-01  3.4845030615E-01  7.4725030290E-01
  2.2167224080E+04  7.1692686413E+00  6.1537433600E+00  3.9471891941E-01  3.5267953159E-01  7.4852214034E-01
  2.2264214047E+04  7.2167006652E+00  6.1504511475E+00  3.9992751327E-01  3.5693757984E-01  7.4978280163E-01
  2.2361204013E+04  7.2642382737E+00  6.1471749957E+00  4.0518191781E-01  3.6122414183E-01  7.5103236910E-01
  2.2458193980E+04  7.3118812423E+00  6.1439147570E+00  4.1052471760E-01  3.6557279569E-01  7.5227092521E-01
  2.2555183946E+04  7.3597651738E+00  6.1407350223E+00  4.1591443930E-01  3.6995088424E-01  7.5349854793E-01
  2.2652173913E+04  7.4078555145E+00  6.1376180419E+00  4.2135128996E-01  3.7435824732E-01  7.5471531293E-01
  2.2749163880E+04  7.4560526048E+00  6.1345159510E+00  4.2683547664E-01  3.7879443052E-01  7.5592129669E-01
  2.2846153846E+04  7.5043562251E+00  6.1314286155E+00  4.3236720643E-01  3.8325939510E-01  7.5711657636E-01
  2.2943143813E+04  7.5529047022E+00  6.1284196367E+00  4.3794668642E-01  3.8775372076E-01  7.5830122977E-01
  2.3040133779E+04  7.6016623218E+00  6.1254713503E+00  4.4357412372E-01  3.9227722873E-01  7.5947533536E-01
  2.3137123746E+04  7.6505278919E+00  6.1225368584E+00  4.4924972545E-01  3.9682942923E-01  7.6063897209E-01
  2.3234113712E+04  7.6995011974E+00  6.1196160391E+00  4.5497369876E-01  4.0141027679E-01  7.6179221943E-01
  2.3331103679E+04  7.7487064719E+00  6.1167640545E+00  4.6074625080E-01  4.0602030935E-01  7.6293515728E-01
  2.3428093645E+04  7.7981404198E+00  6.1139783000E+00  4.6656758872E-01  4.1065948579E-01  7.6406786592E-01
  2.3525083612E+04  7.8476835546E+00  6.1112053153E+00  4.7243791972E-01  4.1532720208E-01  7.6519042597E-01
  2.3622073579E+04  7.8973356657E+00  6.1084449896E+00  4.7835745098E-01  4.2002340611E-01  7.6630291838E-01
  2.3719063545E+04  7.9471888933E+00  6.1057368473E+00  4.8432638972E-01  4.2474849952E-01  7.6740542429E-01
  2.3816053512E+04  7.9973083017E+00  6.1031078112E+00  4.9034494315E-01  4.2950276990E-01  7.6849802481E-01
  2.3913043478E+04  8.0475381689E+00  6.1004905851E+00  4.9641331852E-01  4.3428540276E-01  7.6958079753E-01
  2.4010033445E+04  8.0978782888E+00  6.0978850684E+00  5.0253172306E-01  4.3909633946E-01  7.7065381786E-01
  2.4107023411E+04  8.1483694922E+00  6.0953081844E+00  5.0870036405E-01  4.4393573164E-01  7.7171716166E-01
  2.4204013378E+04  8.1991835722E+00  6.0928303765E+00  5.1491944876E-01  4.4880442482E-01  7.7277090511E-01
  2.4301003344E+04  8.2501094183E+00  6.0903634791E+00  5.2118918448E-01  4.5370127892E-01  7.7381512476E-01
  2.4397993311E+04  8.3011468288E+00  6.0879074008E+00  5.2750977851E-01  4.5862622886E-01  7.7484989741E-01
  2.4494983278E+04  8.3522956030E+00  6.0854620514E+00  5.3388143816E-01  4.6357920780E-01  7.7587530011E-01
  2.4591973244E+04  8.4037828991E+00  6.0831179508E+00  5.4030437078E-01  4.6856139154E-01  7.7689141009E-01
  2.4688963211E+04  8.4554140449E+00  6.0807962482E+00  5.4677878369E-01  4.7357167716E-01  7.7789830476E-01
  2.4785953177E+04  8.5071581019E+00  6.0784845295E+00  5.5330488426E-01  4.7860982705E-01  7.7889606161E-01
  2.4882943144E+04  8.5590148737E+00  6.0761827127E+00  5.5988287985E-01  4.8367576812E-01  7.7988475824E-01
  2.4979933110E+04  8.6111206334E+00  6.0739438302E+00  5.6651297785E-01  4.8877020915E-01  7.8086447228E-01
  2.5076923077E+04  8.6634639216E+00  6.0717624272E+00  5.7322939452E-01  4.9391828483E-01  7.8183528131E-01
  2.5173913043E+04  8.7159214818E+00  6.0695902238E+00  5.8000796163E-01  4.9910097087E-01  7.8279726088E-01
  2.5270903010E+04  8.7684931218E+00  6.0674271460E+00  5.8684010951E-01  5.0431164895E-01  7.8375048374E-01
  2.5367892977E+04  8.8212016821E+00  6.0652824610E+00  5.9372605308E-01  5.0955038079E-01  7.8469502263E-01
  2.5464882943E+04  8.8742468786E+00  6.0632364783E+00  6.0066600728E-01  5.1481834213E-01  7.8563095045E-01
  2.5561872910E+04  8.9274075832E+00  6.0611989598E+00  6.0766018709E-01  5.2011409537E-01  7.8655834019E-01
  2.5658862876E+04  8.9806836076E+00  6.0591698384E+00  6.1470880749E-01  5.2543755501E-01  7.8747726492E-01
  2.5755852843E+04  9.0340747648E+00  6.0571490481E+00  6.2181208353E-01  5.3078863381E-01  7.8838779775E-01
  2.5852842809E+04  9.0877119656E+00  6.0551935443E+00  6.2897023026E-01  5.3616814628E-01  7.8929001179E-01
  2.5949832776E+04  9.1415576192E+00  6.0532860330E+00  6.3618346278E-01  5.4157577203E-01  7.9018398013E-01
  2.6046822742E+04  9.1955196502E+00  6.0513862355E+00  6.4345199620E-01  5.4701079344E-01  7.9106977579E-01
  2.6143812709E+04  9.2495978754E+00  6.0494940921E+00  6.5077604567E-01  5.5247311729E-01  7.9194747170E-01
  2.6240802676E+04  9.3037925362E+00  6.0476097449E+00  6.5815582637E-01  5.5796265191E-01  7.9281714071E-01
  2.6337792642E+04  9.3583038370E+00  6.0458278008E+00  6.6559155350E-01  5.6348084973E-01  7.9367885461E-01
  2.6434782609E+04  9.4129323891E+00  6.0440529289E+00  6.7308344231E-01  5.6902610792E-01  7.9453268163E-01
  2.6531772575E+04  9.4676780131E+00  6.0422850753E+00  6.8063170805E-01  5.7459832742E-01  7.9537869108E-01
  2.6628762542E+04  9.5225405306E+00  6.0405241867E+00  6.8823656601E-01  5.8019740751E-01  7.9621695242E-01
  2.6725752508E+04  9.5775799116E+00  6.0388017538E+00  6.9589823152E-01  5.8582376777E-01  7.9704753501E-01
  2.6822742475E+04  9.6328544369E+00  6.0371476281E+00  7.0361691993E-01  5.9147783473E-01  7.9787050812E-01
  2.6919732441E+04  9.6882467273E+00  6.0354999236E+00  7.1139284661E-01  5.9715849804E-01  7.9868594071E-01
  2.7016722408E+04  9.7437566082E+00  6.0338585923E+00  7.1922622696E-01  6.0286565134E-01  7.9949390049E-01
  2.7113712375E+04  9.7993839056E+00  6.0322235867E+00  7.2711727643E-01  6.0859918674E-01  8.0029445488E-01
  2.7210702341E+04  9.8552202915E+00  6.0306490913E+00  7.3506621048E-01  6.1435991453E-01  8.0108758217E-01
  2.7307692308E+04  9.9112374806E+00  6.0291175972E+00  7.4307324458E-01  6.2014746975E-01  8.0187380600E-01
  2.7404682274E+04  9.9673727722E+00  6.0275919199E+00  7.5113866385E-01  6.2596116967E-01  8.0265578679E-01
  2.7501672241E+04  1.0023625996E+01  6.0260720167E+00  7.5926291169E-01  6.3180105834E-01  8.0343460173E-01
  2.7598662207E+04  1.0079996982E+01  6.0245578456E+00  7.6744591272E-01  6.3766681826E-01  8.0421026260E-01
  2.7695652174E+04  1.0136586053E+01  6.0231180268E+00  7.7568788259E-01  6.4355952209E-01  8.0498278366E-01
  2.7792642140E+04  1.0193323797E+01  6.0217042872E+00  7.8398903698E-01  6.4947826318E-01  8.0575217938E-01
  2.7889632107E+04  1.0250179804E+01  6.0202958028E+00  7.9234959158E-01  6.5542256912E-01  8.0651846417E-01
  2.7986622074E+04  1.0307153907E+01  6.0188925359E+00  8.0076976214E-01  6.6139231993E-01  8.0728165241E-01
  2.8083612040E+04  1.0364245942E+01  6.0174944490E+00  8.0924976441E-01  6.6738739421E-01  8.0804175838E-01
  2.8180602007E+04  1.0421547218E+01  6.0161767116E+00  8.1778981418E-01  6.7340899335E-01  8.0879879633E-01
  2.8277591973E+04  1.0478981892E+01  6.0148761354E+00  8.2639012725E-01  6.7945592927E-01  8.0955278044E-01
  2.8374581940E+04  1.0536534811E+01  6.0135802921E+00  8.3505091947E-01  6.8552786244E-01  8.1030372483E-01
  2.8471571906E+04  1.0594205814E+01  6.0122891485E+00  8.4377240670E-01  6.9162466656E-01  8.1105164355E-01
  2.8568561873E+04  1.0651994739E+01  6.0110026716E+00  8.5255480484E-01  6.9774621396E-01  8.1179655062E-01
  2.8665551839E+04  1.0709972036E+01  6.0097950403E+00  8.6139832980E-01  7.0389369869E-01  8.1253845998E-01
  2.8762541806E+04  1.0768078533E+01  6.0086033006E+00  8.7030319753E-01  7.1006591623E-01  8.1327738551E-01
  2.8859531773E+04  1.0826303080E+01  6.0074158080E+00  8.7926962401E-01  7.1626253192E-01  8.1401334103E-01
  2.8956521739E+04  1.0884645521E+01  6.0062325331E+00  8.8829782522E-01  7.2248341349E-01  8.1474634030E-01
  2.9053511706E+04  1.0943105698E+01  6.0050534468E+00  8.9738801719E-01  7.2872842734E-01  8.1547639704E-01
  2.9150501672E+04  1.1001727585E+01  6.0039445246E+00  9.0654041598E-01  7.3499862479E-01  8.1620352488E-01
  2.9247491639E+04  1.1060479354E+01  6.0028575395E+00  9.1575523765E-01  7.4129304837E-01  8.1692773740E-01
  2.9344481605E+04  1.1119348804E+01  6.0017743488E+00  9.2503269831E-01  7.4761124119E-01  8.1764904813E-01
  2.9441471572E+04  1.1178335780E+01  6.0006949269E+00  9.3437301409E-01  7.5395306531E-01  8.1836747054E-01
  2.9538461538E+04  1.1237440128E+01  5.9996192484E+00  9.4377640114E-01  7.6031838160E-01  8.1908301802E-01
  2.9635451505E+04  1.1296680412E+01  5.9985981784E+00  9.5324307563E-01  7.6670796732E-01  8.1979570393E-01
  2.9732441472E+04  1.1356049536E+01  5.9976120924E+00  9.6277325378E-01  7.7312136746E-01  8.2050554154E-01
  2.9829431438E+04  1.1415535795E+01  5.9966293793E+00  9.7236715180E-01  7.7955787977E-01  8.2121254408E-01
  2.9926421405E+04  1.1475139037E+01  5.9956500165E+00  9.8202498596E-01  7.8601736107E-01  8.2191672471E-01
  3.0023411371E+04  1.1534859113E+01  5.9946739818E+00  9.9176615382E-01  7.9251191525E-01  8.2261809654E-01
  3.0120401338E+04  1.1594701448E+01  5.9937304037E+00  1.0016327924E+00  7.9906850030E-01  8.2331667262E-01
  3.0217391304E+04  1.1654670268E+01  5.9928415494E+00  1.0115653412E+00  8.0564911495E-01  8.2401246592E-01
  3.0314381271E+04  1.1714755586E+01  5.9919556747E+00  1.0215640263E+00  8.1225265914E-01  8.2470548938E-01
  3.0411371237E+04  1.1774957252E+01  5.9910727601E+00  1.0316290738E+00  8.1887898216E-01  8.2539575585E-01
  3.0508361204E+04  1.1835275121E+01  5.9901927864E+00  1.0417607099E+00  8.2552793219E-01  8.2608327815E-01
  3.0605351171E+04  1.1895709440E+01  5.9893168138E+00  1.0519591609E+00  8.3219937908E-01  8.2676806903E-01
  3.0702341137E+04  1.1956288304E+01  5.9885216650E+00  1.0622246531E+00  8.3889481679E-01  8.2745014117E-01
  3.0799331104E+04  1.2016983136E+01  5.9877291291E+00  1.0725574128E+00  8.4561246750E-01  8.2812950720E-01
  3.0896321070E+04  1.2077793793E+01  5.9869391895E+00  1.0829576662E+00  8.5235217575E-01  8.2880617969E-01
  3.0993311037E+04  1.2138720129E+01  5.9861518294E+00  1.0934256400E+00  8.5911378505E-01  8.2948017115E-01
  3.1090301003E+04  1.2199762004E+01  5.9853670326E+00  1.1039615604E+00  8.6589713790E-01  8.3015149404E-01
  3.1187290970E+04  1.2260946346E+01  5.9846292313E+00  1.1145656540E+00  8.7270315815E-01  8.3082016075E-01
