#[MATERIAL DEFINITION FOR MC-GPU: interaction mean free path and sampling data from PENELOPE 2006]
#[MATERIAL NAME]
# MATERIAL23                                                    
#[NOMINAL DENSITY (g/cm^3)]
#   1.00000000
#[NUMBER OF DATA VALUES]
#   1495
#[MEAN FREE PATHS (cm) (ie, average distance between interactions)]
#[Energy (eV)     | Rayleigh        | Compton         | Photoelectric   | TOTAL (+pair prod) (cm) | Rayleigh: max cumul prob F^2]
  5.0000000000E+03  1.1703608244E+00  9.8712602587E+00  5.3825263366E-03  5.3549786983E-03  2.5484197883E-01
  5.0969899666E+03  1.1916347986E+00  9.7711246908E+00  5.6690217843E-03  5.6389238624E-03  2.5973342694E-01
  5.1939799331E+03  1.2130486538E+00  9.6751197895E+00  5.9648869321E-03  5.9320601718E-03  2.6458260769E-01
  5.2909698997E+03  1.2346004482E+00  9.5830060567E+00  6.2702425751E-03  6.2344997447E-03  2.6939068056E-01
  5.3879598662E+03  1.2562881641E+00  9.4945611948E+00  6.5852087333E-03  6.5463536700E-03  2.7415872661E-01
  5.4849498328E+03  1.2781097169E+00  9.4095785937E+00  6.9099788564E-03  6.8678053061E-03  2.7888775508E-01
  5.5819397993E+03  1.3000629630E+00  9.3278659743E+00  7.2454914975E-03  7.1997733490E-03  2.8357878477E-01
  5.6789297659E+03  1.3221457078E+00  9.2492441714E+00  7.5910387596E-03  7.5415497983E-03  2.8823282755E-01
  5.7759197324E+03  1.3443557140E+00  9.1735460377E+00  7.9467394494E-03  7.8932433479E-03  2.9285078503E-01
  5.8729096990E+03  1.3666907083E+00  9.1006154576E+00  8.3127116790E-03  8.2549617170E-03  2.9743351967E-01
  5.9698996656E+03  1.3891483926E+00  9.0303064481E+00  8.6890728809E-03  8.6268116612E-03  3.0198190241E-01
  6.0668896321E+03  1.4117266192E+00  8.9624819642E+00  9.0767302314E-03  9.0096777639E-03  3.0649674868E-01
  6.1638795987E+03  1.4344236923E+00  8.8970125497E+00  9.4754296697E-03  9.4032992900E-03  3.1097878356E-01
  6.2608695652E+03  1.4572383337E+00  8.8337758815E+00  9.8865256229E-03  9.8089992241E-03  3.1542873319E-01
  6.3578595318E+03  1.4801692500E+00  8.7726572084E+00  1.0313352788E-02  1.0230046354E-02  3.1984734497E-01
  6.4548494983E+03  1.5032230659E+00  8.7135977301E+00  1.0751678934E-02  1.0662261857E-02  3.2423523050E-01
  6.5518394649E+03  1.5264005496E+00  8.6565059635E+00  1.1203748466E-02  1.1107840738E-02  3.2859292178E-01
  6.6488294314E+03  1.5496922212E+00  8.6012359136E+00  1.1668517415E-02  1.1565742146E-02  3.3292096208E-01
  6.7458193980E+03  1.5730965686E+00  8.5476975719E+00  1.2145374321E-02  1.2035352262E-02  3.3721990461E-01
  6.8428093645E+03  1.5966120382E+00  8.4958062367E+00  1.2634451509E-02  1.2516788339E-02  3.4149031120E-01
  6.9397993311E+03  1.6202370389E+00  8.4454821433E+00  1.3135880801E-02  1.3010166737E-02  3.4573271816E-01
  7.0367892977E+03  1.6439708712E+00  8.3966550812E+00  1.3650696568E-02  1.3516488370E-02  3.4994751130E-01
  7.1337792642E+03  1.6678401075E+00  8.3493992504E+00  1.4179703433E-02  1.4036529062E-02  3.5413504753E-01
  7.2307692308E+03  1.6918170075E+00  8.3035001548E+00  1.4721601297E-02  1.4568997021E-02  3.5829569486E-01
  7.3277591973E+03  1.7159003487E+00  8.2588936524E+00  1.5276523384E-02  1.5114008112E-02  3.6242983089E-01
  7.4247491639E+03  1.7400888222E+00  8.2155192424E+00  1.5844602464E-02  1.5671677304E-02  3.6653784139E-01
  7.5217391304E+03  1.7643981867E+00  8.1733985513E+00  1.6425970849E-02  1.6242120438E-02  3.7062006316E-01
  7.6187290970E+03  1.7888337089E+00  8.1325000952E+00  1.7020760412E-02  1.6825451660E-02  3.7467673917E-01
  7.7157190635E+03  1.8133727451E+00  8.0926724339E+00  1.7629102583E-02  1.7421781237E-02  3.7870811399E-01
  7.8127090301E+03  1.8380136892E+00  8.0538670973E+00  1.8251128363E-02  1.8031220620E-02  3.8271444189E-01
  7.9096989967E+03  1.8627828339E+00  8.0161526884E+00  1.8886968329E-02  1.8653883793E-02  3.8669598587E-01
  8.0066889632E+03  1.8876724426E+00  7.9794513952E+00  1.9537554499E-02  1.9290661805E-02  3.9065299732E-01
  8.1036789298E+03  1.9126617701E+00  7.9436412912E+00  2.0213394852E-02  1.9951771224E-02  3.9458565144E-01
  8.2006688963E+03  1.9377580443E+00  7.9087171867E+00  2.0904113513E-02  2.0627072197E-02  3.9849411266E-01
  8.2976588629E+03  1.9629984661E+00  7.8747781582E+00  2.1609854991E-02  2.1316691209E-02  4.0237855473E-01
  8.3946488294E+03  1.9883366329E+00  7.8416167120E+00  2.2330763449E-02  2.2020742205E-02  4.0623915983E-01
  8.4916387960E+03  2.0137725000E+00  7.8092064361E+00  2.3066982712E-02  2.2739344435E-02  4.1007610174E-01
  8.5886287625E+03  2.0393646149E+00  7.7777126068E+00  2.3818656268E-02  2.3472625778E-02  4.1388949919E-01
  8.6856187291E+03  2.0650519314E+00  7.7468983879E+00  2.4585927280E-02  2.4220694550E-02  4.1767946575E-01
  8.7826086957E+03  2.0908399498E+00  7.7167596975E+00  2.5368938580E-02  2.4983668338E-02  4.2144612365E-01
  8.8795986622E+03  2.1167832688E+00  7.6874358224E+00  2.6167832684E-02  2.5761672894E-02  4.2518960434E-01
  8.9765886288E+03  2.1428185789E+00  7.6587069747E+00  2.6982751786E-02  2.6554812365E-02  4.2891005326E-01
  9.0735785953E+03  2.1689710349E+00  7.6306269732E+00  2.7818207360E-02  2.7367434753E-02  4.3260753874E-01
  9.1705685619E+03  2.1952638836E+00  7.6032338958E+00  2.8671615691E-02  2.8197013548E-02  4.3628211381E-01
  9.2675585284E+03  2.2216450511E+00  7.5763629896E+00  2.9541768043E-02  2.9042342816E-02  4.3993384038E-01
  9.3645484950E+03  2.2481752185E+00  7.5501553687E+00  3.0428811333E-02  2.9903551964E-02  4.4356278870E-01
  9.4615384615E+03  2.2748156459E+00  7.5244859749E+00  3.1332892202E-02  3.0780748974E-02  4.4716903680E-01
  9.5585284281E+03  2.3015599351E+00  7.4993233747E+00  3.2254157009E-02  3.1674047337E-02  4.5075266993E-01
  9.6555183946E+03  2.3284619980E+00  7.4747764601E+00  3.3192751840E-02  3.2583573884E-02  4.5431378008E-01
  9.7525083612E+03  2.3554465080E+00  7.4506495049E+00  3.4148822513E-02  3.3509424237E-02  4.5785246013E-01
  9.8494983278E+03  2.3825909228E+00  7.4271034982E+00  3.5122514574E-02  3.4451729863E-02  4.6136874928E-01
  9.9464882943E+03  2.4098374518E+00  7.4039900014E+00  3.6113973306E-02  3.5410588057E-02  4.6486266727E-01
  1.0043478261E+04  2.4372089623E+00  7.3813457779E+00  3.7127935165E-02  3.6390526253E-02  4.6833424308E-01
  1.0140468227E+04  2.4647192232E+00  7.3591817117E+00  3.8165946297E-02  3.7392992992E-02  4.7178351327E-01
  1.0237458194E+04  2.4923226977E+00  7.3373926173E+00  3.9222637815E-02  3.8412782432E-02  4.7521052162E-01
  1.0334448161E+04  2.5200984638E+00  7.3161205343E+00  4.0298163044E-02  3.9450032998E-02  4.7861531865E-01
  1.0431438127E+04  2.5479463287E+00  7.2951581104E+00  4.1392675086E-02  4.0504829557E-02  4.8199796127E-01
  1.0528428094E+04  2.5759818676E+00  7.2747114824E+00  4.2506326827E-02  4.1577321280E-02  4.8535850949E-01
  1.0625418060E+04  2.6040941988E+00  7.2545618900E+00  4.3639270931E-02  4.2667586158E-02  4.8869699179E-01
  1.0722408027E+04  2.6323758368E+00  7.2348659733E+00  4.4791659850E-02  4.3775766080E-02  4.9201342193E-01
  1.0819397993E+04  2.6607536140E+00  7.2154817790E+00  4.5963645820E-02  4.4901947608E-02  4.9530782116E-01
  1.0916387960E+04  2.6892864577E+00  7.1965012118E+00  4.7155380868E-02  4.6046261117E-02  4.9858021753E-01
  1.1013377926E+04  2.7179303303E+00  7.1778380560E+00  4.8367016813E-02  4.7208800145E-02  5.0183064562E-01
  1.1110367893E+04  2.7467194926E+00  7.1595397236E+00  4.9598705264E-02  4.8389685461E-02  5.0505914614E-01
  1.1207357860E+04  2.7756297719E+00  7.1415560789E+00  5.0853751203E-02  4.9592014296E-02  5.0826576564E-01
  1.1304347826E+04  2.8046803715E+00  7.1239089339E+00  5.2137605608E-02  5.0820927893E-02  5.1145054416E-01
  1.1401337793E+04  2.8338570225E+00  7.1065658865E+00  5.3442446004E-02  5.2068934943E-02  5.1461349858E-01
  1.1498327759E+04  2.8631741837E+00  7.0895407857E+00  5.4768431584E-02  5.3336152403E-02  5.1775464903E-01
  1.1595317726E+04  2.8926168160E+00  7.0728018375E+00  5.6115721366E-02  5.4622683796E-02  5.2087402199E-01
  1.1692307692E+04  2.9222056680E+00  7.0563713945E+00  5.7484474206E-02  5.5928647275E-02  5.2397165006E-01
  1.1789297659E+04  2.9519135278E+00  7.0402022829E+00  5.8874848789E-02  5.7254138537E-02  5.2704757163E-01
  1.1886287625E+04  2.9817792040E+00  7.0243407340E+00  6.0287003637E-02  5.8599282648E-02  5.3010183061E-01
  1.1983277592E+04  3.0117511645E+00  7.0087092684E+00  6.1721097109E-02  5.9964161096E-02  5.3313446718E-01
  1.2080267559E+04  3.0418988021E+00  6.9933923509E+00  6.3177287399E-02  6.1348912850E-02  5.3614550528E-01
  1.2177257525E+04  3.0721333548E+00  6.9782682637E+00  6.4655732544E-02  6.2753597458E-02  5.3913497238E-01
  1.2274247492E+04  3.1025680934E+00  6.9634731047E+00  6.6156590419E-02  6.4178376205E-02  5.4210290184E-01
  1.2371237458E+04  3.1330633387E+00  6.9488279154E+00  6.7680018743E-02  6.5623277464E-02  5.4504933262E-01
  1.2468227425E+04  3.1637903292E+00  6.9345329517E+00  6.9226175075E-02  6.7088494829E-02  5.4797430902E-01
  1.2565217391E+04  3.1945770677E+00  6.9203778249E+00  7.0806612290E-02  6.8584725159E-02  5.5087788334E-01
  1.2662207358E+04  3.2255686869E+00  6.9065253999E+00  7.2416177817E-02  7.0107139435E-02  5.5376012429E-01
  1.2759197324E+04  3.2566545944E+00  6.8928437760E+00  7.4049590827E-02  7.1650662263E-02  5.5662106568E-01
  1.2856187291E+04  3.2879065326E+00  6.8794077998E+00  7.5707018525E-02  7.3215440146E-02  5.5946073912E-01
  1.2953177258E+04  3.3192977237E+00  6.8661827183E+00  7.7388627998E-02  7.4801560498E-02  5.6227918182E-01
  1.3050167224E+04  3.3508072723E+00  6.8531407490E+00  7.9094586214E-02  7.6409111635E-02  5.6507643640E-01
  1.3147157191E+04  3.3825099214E+00  6.8403562187E+00  8.0825060029E-02  7.8038243375E-02  5.6785255067E-01
  1.3244147157E+04  3.4142761887E+00  6.8276892449E+00  8.2580216180E-02  7.9688969569E-02  5.7060757734E-01
  1.3341137124E+04  3.4462941543E+00  6.8153277249E+00  8.4360221292E-02  8.1361516824E-02  5.7334157386E-01
  1.3438127090E+04  3.4783795472E+00  6.8030802417E+00  8.6165241878E-02  8.3055856225E-02  5.7605460222E-01
  1.3535117057E+04  3.5106528661E+00  6.7910624277E+00  8.7995444334E-02  8.4772168922E-02  5.7874672870E-01
  1.3632107023E+04  3.5430636331E+00  6.7792203698E+00  8.9850994949E-02  8.6510514862E-02  5.8141802368E-01
  1.3729096990E+04  3.5755879603E+00  6.7675271487E+00  9.1732513916E-02  8.8271390018E-02  5.8406856153E-01
  1.3826086957E+04  3.6083303666E+00  6.7560771563E+00  9.3640508352E-02  9.0055282315E-02  5.8669841739E-01
  1.3923076923E+04  3.6411405720E+00  6.7447263750E+00  9.5574387112E-02  9.1861464810E-02  5.8930764060E-01
  1.4020066890E+04  3.6741811073E+00  6.7336196102E+00  9.7534316491E-02  9.3690158335E-02  5.9189627565E-01
  1.4117056856E+04  3.7073308078E+00  6.7226432898E+00  9.9520462674E-02  9.5541355761E-02  5.9446437216E-01
  1.4214046823E+04  3.7406166361E+00  6.7118181307E+00  1.0153299174E-01  9.7415167102E-02  5.9701198470E-01
  1.4311036789E+04  3.7741121582E+00  6.7012044440E+00  1.0357206966E-01  9.9311744445E-02  5.9953917257E-01
  1.4408026756E+04  3.8076783356E+00  6.6906790613E+00  1.0563786231E-01  1.0123105298E-01  6.0204599960E-01
  1.4505016722E+04  3.8414848164E+00  6.6803821057E+00  1.0773053545E-01  1.0317332962E-01  6.0453253396E-01
  1.4602006689E+04  3.8754047997E+00  6.6702037669E+00  1.0985025473E-01  1.0513854525E-01  6.0699884796E-01
  1.4698996656E+04  3.9094483574E+00  6.6601497333E+00  1.1199718572E-01  1.0712679052E-01  6.0944501786E-01
  1.4795986622E+04  3.9437285248E+00  6.6503079243E+00  1.1417149387E-01  1.0913825673E-01  6.1187112371E-01
  1.4892976589E+04  3.9780823549E+00  6.6405448209E+00  1.1637334453E-01  1.1117286714E-01  6.1427724593E-01
  1.4989966555E+04  4.0126482299E+00  6.6309666056E+00  1.1860290295E-01  1.1323083793E-01  6.1666344905E-01
  1.5086956522E+04  4.0473699935E+00  6.6215261836E+00  1.2088452474E-01  1.1533421339E-01  6.1902979553E-01
  1.5183946488E+04  4.0821668168E+00  6.6121595688E+00  1.2319778988E-01  1.1746418517E-01  6.2137635241E-01
  1.5280936455E+04  4.1172543658E+00  6.6030289210E+00  1.2554012787E-01  1.1961856274E-01  6.2370319104E-01
  1.5377926421E+04  4.1524234921E+00  6.5939721628E+00  1.2791171537E-01  1.2179720451E-01  6.2601038688E-01
  1.5474916388E+04  4.1877301574E+00  6.5850306046E+00  1.3031272897E-01  1.2400025022E-01  6.2829801935E-01
  1.5571906355E+04  4.2232722515E+00  6.5762751120E+00  1.3274334520E-01  1.2622789258E-01  6.3056617161E-01
  1.5668896321E+04  4.2588925006E+00  6.5675855174E+00  1.3520374052E-01  1.2848002834E-01  6.3281493038E-01
  1.5765886288E+04  4.2947069080E+00  6.5590472457E+00  1.3769409133E-01  1.3075687061E-01  6.3504438581E-01
  1.5862876254E+04  4.3307023376E+00  6.5506475096E+00  1.4021457398E-01  1.3305848175E-01  6.3725463120E-01
  1.5959866221E+04  4.3667772828E+00  6.5423096344E+00  1.4276536475E-01  1.3538480906E-01  6.3944575478E-01
  1.6056856187E+04  4.4030922474E+00  6.5341505895E+00  1.4534663985E-01  1.3773612915E-01  6.4161783392E-01
  1.6153846154E+04  4.4395444384E+00  6.5260918689E+00  1.4795857546E-01  1.4011238384E-01  6.4377094859E-01
  1.6250836120E+04  4.4760774892E+00  6.5180912395E+00  1.5060134768E-01  1.4251356579E-01  6.4590518257E-01
  1.6347826087E+04  4.5128855783E+00  6.5102886272E+00  1.5327513254E-01  1.4494000811E-01  6.4802062325E-01
  1.6444816054E+04  4.5497977948E+00  6.5025570964E+00  1.5598010602E-01  1.4739154634E-01  6.5011736145E-01
  1.6541806020E+04  4.5867942012E+00  6.4948815775E+00  1.5871644407E-01  1.4986821403E-01  6.5219549128E-01
  1.6638795987E+04  4.6240857496E+00  6.4874123267E+00  1.6148432253E-01  1.5237038266E-01  6.5425510992E-01
  1.6735785953E+04  4.6614610954E+00  6.4799950040E+00  1.6428391722E-01  1.5489780929E-01  6.5629631754E-01
  1.6832775920E+04  4.6989347446E+00  6.4726395080E+00  1.6711540389E-01  1.5745057275E-01  6.5831921631E-01
  1.6929765886E+04  4.7366910777E+00  6.4654754034E+00  1.6997895823E-01  1.6002901953E-01  6.6032389508E-01
  1.7026755853E+04  4.7745324989E+00  6.4583600863E+00  1.7287475588E-01  1.6263290394E-01  6.6231044416E-01
  1.7123745819E+04  4.8124754450E+00  6.4513047491E+00  1.7580297242E-01  1.6526230519E-01  6.6427896026E-01
  1.7220735786E+04  4.8506993688E+00  6.4444341117E+00  1.7876378337E-01  1.6791757575E-01  6.6622954306E-01
  1.7317725753E+04  4.8890096554E+00  6.4376093182E+00  1.8175736420E-01  1.7059845150E-01  6.6816229507E-01
  1.7414715719E+04  4.9274137743E+00  6.4308352231E+00  1.8478389032E-01  1.7330499349E-01  6.7007732140E-01
  1.7511705686E+04  4.9661079434E+00  6.4242470534E+00  1.8784639156E-01  1.7604010433E-01  6.7197472971E-01
  1.7608695652E+04  5.0048897344E+00  6.4177019657E+00  1.9096335056E-01  1.7881952402E-01  6.7385462997E-01
  1.7705685619E+04  5.0437588613E+00  6.4111994435E+00  1.9411443760E-01  1.8162525580E-01  6.7571713437E-01
  1.7802675585E+04  5.0829136886E+00  6.4048749801E+00  1.9729983565E-01  1.8445771921E-01  6.7756356292E-01
  1.7899665552E+04  5.1221695000E+00  6.3985993753E+00  2.0051972768E-01  1.8731662419E-01  6.7939566557E-01
  1.7996655518E+04  5.1615138950E+00  6.3923637826E+00  2.0377429659E-01  1.9020199059E-01  6.8121350409E-01
  1.8093645485E+04  5.2011131140E+00  6.3862806126E+00  2.0706372527E-01  1.9311419185E-01  6.8301713169E-01
  1.8190635452E+04  5.2408453299E+00  6.3802648290E+00  2.1038819658E-01  1.9605303753E-01  6.8480660389E-01
  1.8287625418E+04  5.2806673620E+00  6.3742866572E+00  2.1374789333E-01  1.9901848121E-01  6.8658197841E-01
  1.8384615385E+04  5.3207023381E+00  6.3684285310E+00  2.1714299831E-01  2.0201082033E-01  6.8834331508E-01
  1.8481605351E+04  5.3609131962E+00  6.3626634418E+00  2.2057369428E-01  2.0503002385E-01  6.9009067575E-01
  1.8578595318E+04  5.4012150874E+00  6.3569337064E+00  2.2404016396E-01  2.0807594913E-01  6.9182412420E-01
  1.8675585284E+04  5.4416770776E+00  6.3512850707E+00  2.2754259004E-01  2.1114878323E-01  6.9354372603E-01
  1.8772575251E+04  5.4823686700E+00  6.3457620471E+00  2.3108457850E-01  2.1425166596E-01  6.9524954863E-01
  1.8869565217E+04  5.5231524972E+00  6.3402722508E+00  2.3466473871E-01  2.1738295878E-01  6.9694166101E-01
  1.8966555184E+04  5.5640326695E+00  6.3348182013E+00  2.3828153394E-01  2.2054121799E-01  6.9862013381E-01
  1.9063545151E+04  5.6052069446E+00  6.3295290775E+00  2.4193514814E-01  2.2372694748E-01  7.0028503915E-01
  1.9160535117E+04  5.6464746408E+00  6.3242711777E+00  2.4562576522E-01  2.2693970476E-01  7.0193645056E-01
  1.9257525084E+04  5.6878354956E+00  6.3190441607E+00  2.4935356908E-01  2.3017951289E-01  7.0357444294E-01
  1.9354515050E+04  5.7294228572E+00  6.3139344573E+00  2.5311874357E-01  2.3344673369E-01  7.0519909248E-01
  1.9451505017E+04  5.7711762133E+00  6.3089008344E+00  2.5692147254E-01  2.3674124760E-01  7.0681047606E-01
  1.9548494983E+04  5.8130239028E+00  6.3038962312E+00  2.6076193979E-01  2.4006289417E-01  7.0840866204E-01
  1.9645484950E+04  5.8550109121E+00  6.2989495019E+00  2.6464032910E-01  2.4341181194E-01  7.0999371106E-01
  1.9742474916E+04  5.8972515783E+00  6.2941329317E+00  2.6855682423E-01  2.4678833528E-01  7.1156568536E-01
  1.9839464883E+04  5.9395877370E+00  6.2893436224E+00  2.7251160889E-01  2.5019205999E-01  7.1312464903E-01
  1.9936454849E+04  5.9820191357E+00  6.2845812874E+00  2.7650486679E-01  2.5362299832E-01  7.1467066794E-01
  2.0033444816E+04  6.0246951962E+00  6.2799404237E+00  2.8054593751E-01  2.5708928102E-01  7.1620380964E-01
  2.0130434783E+04  6.0675218760E+00  6.2753596103E+00  2.8464368325E-01  2.6059789370E-01  7.1772414325E-01
  2.0227424749E+04  6.1104449484E+00  6.2708041320E+00  2.8878111043E-01  2.6413423522E-01  7.1923173943E-01
  2.0324414716E+04  6.1535024949E+00  6.2662973678E+00  2.9295840970E-01  2.6769842934E-01  7.2072667027E-01
  2.0421404682E+04  6.1968247456E+00  6.2619183708E+00  2.9717577168E-01  2.7129088778E-01  7.2220900921E-01
  2.0518394649E+04  6.2402445593E+00  6.2575631608E+00  3.0143338699E-01  2.7491111975E-01  7.2367883096E-01
  2.0615384615E+04  6.2837616931E+00  6.2532314970E+00  3.0573144625E-01  2.7855912861E-01  7.2513621142E-01
  2.0712374582E+04  6.3274971365E+00  6.2489950203E+00  3.1007014007E-01  2.8223530380E-01  7.2658122766E-01
  2.0809364548E+04  6.3714198379E+00  6.2448337386E+00  3.1444965905E-01  2.8593956285E-01  7.2801395776E-01
  2.0906354515E+04  6.4154410614E+00  6.2406945589E+00  3.1887019377E-01  2.8967162558E-01  7.2943448082E-01
  2.1003344482E+04  6.4595605696E+00  6.2365772621E+00  3.2333193482E-01  2.9343148891E-01  7.3084287646E-01
  2.1100334448E+04  6.5039721781E+00  6.2325923016E+00  3.2783507278E-01  2.9721980492E-01  7.3223921900E-01
  2.1197324415E+04  6.5485036829E+00  6.2286396520E+00  3.3237979822E-01  3.0103600548E-01  7.3362357970E-01
  2.1294314381E+04  6.5931347060E+00  6.2247075366E+00  3.3696630169E-01  3.0488001561E-01  7.3499603108E-01
  2.1391304348E+04  6.6379021884E+00  6.2208163108E+00  3.4159477375E-01  3.0875195685E-01  7.3635664691E-01
  2.1488294314E+04  6.6829501789E+00  6.2170445208E+00  3.4626540495E-01  3.1265233975E-01  7.3770550202E-01
  2.1585284281E+04  6.7280989492E+00  6.2132919884E+00  3.5097838582E-01  3.1658052816E-01  7.3904267231E-01
  2.1682274247E+04  6.7733482705E+00  6.2095585294E+00  3.5573390689E-01  3.2053650791E-01  7.4036823469E-01
  2.1779264214E+04  6.8187803534E+00  6.2058878552E+00  3.6053215870E-01  3.2452056984E-01  7.4168226692E-01
  2.1876254181E+04  6.8644531127E+00  6.2023095688E+00  3.6537333174E-01  3.2853292874E-01  7.4298484766E-01
  2.1973244147E+04  6.9102277156E+00  6.1987491615E+00  3.7025761654E-01  3.3257305733E-01  7.4427605632E-01
  2.2070234114E+04  6.9561039383E+00  6.1952064657E+00  3.7518520360E-01  3.3664093508E-01  7.4555597305E-01
  2.2167224080E+04  7.0021961613E+00  6.1917401029E+00  3.8015628339E-01  3.4073698913E-01  7.4682467866E-01
  2.2264214047E+04  7.0485023213E+00  6.1883477185E+00  3.8517104642E-01  3.4486120679E-01  7.4808225456E-01
  2.2361204013E+04  7.0949114250E+00  6.1849719269E+00  3.9022989541E-01  3.4901330433E-01  7.4932878270E-01
  2.2458193980E+04  7.1414232532E+00  6.1816125755E+00  3.9537389090E-01  3.5322587493E-01  7.5056434516E-01
  2.2555183946E+04  7.1881701782E+00  6.1783350748E+00  4.0056304227E-01  3.5746722061E-01  7.5178901958E-01
  2.2652173913E+04  7.2351184683E+00  6.1751214436E+00  4.0579754865E-01  3.6173719455E-01  7.5300288133E-01
  2.2749163880E+04  7.2821708379E+00  6.1719232038E+00  4.1107760913E-01  3.6603537133E-01  7.5420600657E-01
  2.2846153846E+04  7.3293270725E+00  6.1687402164E+00  4.1640342286E-01  3.7036171902E-01  7.5539847217E-01
  2.2943143813E+04  7.3767222492E+00  6.1656368620E+00  4.2177518896E-01  3.7471679131E-01  7.5658035560E-01
  2.3040133779E+04  7.4243214919E+00  6.1625952540E+00  4.2719310661E-01  3.7910042370E-01  7.5775173497E-01
  2.3137123746E+04  7.4720259855E+00  6.1595679141E+00  4.3265737496E-01  3.8351215714E-01  7.5891268888E-01
  2.3234113712E+04  7.5198355200E+00  6.1565547161E+00  4.3816819320E-01  3.8795195326E-01  7.6006329642E-01
  2.3331103679E+04  7.5678714508E+00  6.1536114735E+00  4.4372576053E-01  3.9242032629E-01  7.6120363714E-01
  2.3428093645E+04  7.6161305577E+00  6.1507355460E+00  4.4933027615E-01  3.9691724203E-01  7.6233379092E-01
  2.3525083612E+04  7.6644961222E+00  6.1478728358E+00  4.5498193928E-01  4.0144213304E-01  7.6345383801E-01
  2.3622073579E+04  7.7129679390E+00  6.1450232280E+00  4.6068094916E-01  4.0599495462E-01  7.6456385892E-01
  2.3719063545E+04  7.7616360426E+00  6.1422266960E+00  4.6642750503E-01  4.1057609194E-01  7.6566393442E-01
  2.3816053512E+04  7.8105640100E+00  6.1395104657E+00  4.7222180615E-01  4.1518582211E-01  7.6675414519E-01
  2.3913043478E+04  7.8595996773E+00  6.1368064686E+00  4.7806405180E-01  4.1982337817E-01  7.6783456846E-01
  2.4010033445E+04  7.9087428433E+00  6.1341146002E+00  4.8395444126E-01  4.2448870915E-01  7.6890527932E-01
  2.4107023411E+04  7.9580334187E+00  6.1314519674E+00  4.8989317382E-01  4.2918196334E-01  7.6996635327E-01
  2.4204013378E+04  8.0076393240E+00  6.1288897842E+00  4.9588044880E-01  4.3390394655E-01  7.7101786618E-01
  2.4301003344E+04  8.0573542065E+00  6.1263389119E+00  5.0191646551E-01  4.3865358304E-01  7.7205989422E-01
  2.4397993311E+04  8.1071778693E+00  6.1237992557E+00  5.0800142330E-01  4.4343081569E-01  7.7309251383E-01
  2.4494983278E+04  8.1571101165E+00  6.1212707220E+00  5.1413552150E-01  4.4823558566E-01  7.7411580169E-01
  2.4591973244E+04  8.2073730558E+00  6.1188447836E+00  5.2031895948E-01  4.5306901191E-01  7.7512983466E-01
  2.4688963211E+04  8.2577763424E+00  6.1164417529E+00  5.2655193661E-01  4.5793005362E-01  7.7613468975E-01
  2.4785953177E+04  8.3082897259E+00  6.1140490822E+00  5.3283465227E-01  4.6281849005E-01  7.7713044407E-01
  2.4882943144E+04  8.3589130144E+00  6.1116666865E+00  5.3916730585E-01  4.6773425636E-01  7.7811717481E-01
  2.4979933110E+04  8.4097794713E+00  6.1093481363E+00  5.4555009676E-01  4.7267802883E-01  7.7909495920E-01
  2.5076923077E+04  8.4608778893E+00  6.1070879174E+00  5.5201605445E-01  4.7767428631E-01  7.8006387443E-01
  2.5173913043E+04  8.5120877349E+00  6.1048372549E+00  5.5854184724E-01  4.8270453508E-01  7.8102399565E-01
  2.5270903010E+04  8.5634088202E+00  6.1025960718E+00  5.6511920167E-01  4.8776233850E-01  7.8197539529E-01
  2.5367892977E+04  8.6148634589E+00  6.1003737284E+00  5.7174832439E-01  4.9284775941E-01  7.8291814574E-01
  2.5464882943E+04  8.6666467603E+00  6.0982513586E+00  5.7842942211E-01  4.9796191588E-01  7.8385231957E-01
  2.5561872910E+04  8.7185426958E+00  6.0961377912E+00  5.8516270154E-01  5.0310345063E-01  7.8477798942E-01
  2.5658862876E+04  8.7705510816E+00  6.0940329567E+00  5.9194836944E-01  5.0827228697E-01  7.8569522799E-01
  2.5755852843E+04  8.8226717350E+00  6.0919367860E+00  5.9878663257E-01  5.1346834655E-01  7.8660410804E-01
  2.5852842809E+04  8.8750323248E+00  6.0899068358E+00  6.0567769774E-01  5.1869240412E-01  7.8750470230E-01
  2.5949832776E+04  8.9275961901E+00  6.0879256256E+00  6.1262177178E-01  5.2394416078E-01  7.8839708349E-01
  2.6046822742E+04  8.9802735350E+00  6.0859524474E+00  6.1961906156E-01  5.2922294168E-01  7.8928132426E-01
  2.6143812709E+04  9.0330641807E+00  6.0839872391E+00  6.2666977396E-01  5.3452866266E-01  7.9015749717E-01
  2.6240802676E+04  9.0859683612E+00  6.0820301425E+00  6.3377411590E-01  5.3986124099E-01  7.9102567465E-01
  2.6337792642E+04  9.1391808995E+00  6.0801767922E+00  6.4093229431E-01  5.4522205295E-01  7.9188592815E-01
  2.6434782609E+04  9.1925077643E+00  6.0783308159E+00  6.4814451617E-01  5.5060958797E-01  7.9273832558E-01
  2.6531772575E+04  9.2459487805E+00  6.0764921576E+00  6.5541098848E-01  5.5602375619E-01  7.9358293590E-01
  2.6628762542E+04  9.2995037738E+00  6.0746607617E+00  6.6273191825E-01  5.6146446617E-01  7.9441982825E-01
  2.6725752508E+04  9.3532309393E+00  6.0728684690E+00  6.7010751254E-01  5.6693211736E-01  7.9524907162E-01
  2.6822742475E+04  9.4071868321E+00  6.0711454625E+00  6.7753797843E-01  5.7242711584E-01  7.9607073493E-01
  2.6919732441E+04  9.4612575438E+00  6.0694291613E+00  6.8502352301E-01  5.7794841744E-01  7.9688488680E-01
  2.7016722408E+04  9.5154429037E+00  6.0677195152E+00  6.9256435343E-01  5.8349592521E-01  7.9769159458E-01
  2.7113712375E+04  9.5697427419E+00  6.0660164748E+00  7.0016067683E-01  5.8906954072E-01  7.9849092537E-01
  2.7210702341E+04  9.6242456889E+00  6.0643748449E+00  7.0781270040E-01  5.9467003050E-01  7.9928285570E-01
  2.7307692308E+04  9.6789243951E+00  6.0627769129E+00  7.1552063135E-01  6.0029705398E-01  8.0006791616E-01
  2.7404682274E+04  9.7337182371E+00  6.0611850651E+00  7.2328474144E-01  6.0594997083E-01  8.0084880821E-01
  2.7501672241E+04  9.7886270483E+00  6.0595992569E+00  7.3110544920E-01  6.1162882479E-01  8.0162662500E-01
  2.7598662207E+04  9.8436506634E+00  6.0580194443E+00  7.3898269214E-01  6.1733332072E-01  8.0240137762E-01
  2.7695652174E+04  9.8988855762E+00  6.0565150545E+00  7.4691667763E-01  6.2306447014E-01  8.0317307913E-01
  2.7792642140E+04  9.9542650198E+00  6.0550372428E+00  7.5490761305E-01  6.2882142326E-01  8.0394174277E-01
  2.7889632107E+04  1.0009759740E+01  6.0535649381E+00  7.6295570580E-01  6.3460373840E-01  8.0470738175E-01
  2.7986622074E+04  1.0065369574E+01  6.0520981007E+00  7.7106116334E-01  6.4041130526E-01  8.0547000922E-01
  2.8083612040E+04  1.0121094362E+01  6.0506366917E+00  7.7922419312E-01  6.4624401217E-01  8.0622963829E-01
  2.8180602007E+04  1.0177021255E+01  6.0492567871E+00  7.8744500264E-01  6.5210298904E-01  8.0698628205E-01
  2.8277591973E+04  1.0233077857E+01  6.0478944326E+00  7.9572379940E-01  6.5798712307E-01  8.0773995352E-01
  2.8374581940E+04  1.0289249700E+01  6.0465370480E+00  8.0406079094E-01  6.6389609765E-01  8.0849066568E-01
  2.8471571906E+04  1.0345536626E+01  6.0451845984E+00  8.1245618484E-01  6.6982979626E-01  8.0923843148E-01
  2.8568561873E+04  1.0401938478E+01  6.0438370492E+00  8.2091018868E-01  6.7578810102E-01  8.0998326382E-01
  2.8665551839E+04  1.0458521647E+01  6.0425694970E+00  8.2942301007E-01  6.8177213199E-01  8.1072517554E-01
  2.8762541806E+04  1.0515230358E+01  6.0413182053E+00  8.3799485667E-01  6.8778076280E-01  8.1146417945E-01
  2.8859531773E+04  1.0572054101E+01  6.0400713838E+00  8.4662593612E-01  6.9381368156E-01  8.1220028833E-01
  2.8956521739E+04  1.0628992719E+01  6.0388290015E+00  8.5531645612E-01  6.9987076581E-01  8.1293351487E-01
  2.9053511706E+04  1.0686046059E+01  6.0375910279E+00  8.6406662439E-01  7.0595189181E-01  8.1366387177E-01
  2.9150501672E+04  1.0743254535E+01  6.0364242751E+00  8.7287664866E-01  7.1205804285E-01  8.1439137164E-01
  2.9247491639E+04  1.0800588880E+01  6.0352799010E+00  8.8174673670E-01  7.1818832559E-01  8.1511602705E-01
  2.9344481605E+04  1.0858037870E+01  6.0341395314E+00  8.9067709629E-01  7.2434231401E-01  8.1583785056E-01
  2.9441471572E+04  1.0915601352E+01  6.0330031392E+00  8.9966793525E-01  7.3051988005E-01  8.1655685463E-01
  2.9538461538E+04  1.0973279178E+01  6.0318706975E+00  9.0871946142E-01  7.3672089441E-01  8.1727305171E-01
  2.9635451505E+04  1.1031087208E+01  6.0307937321E+00  9.1783188265E-01  7.4294608164E-01  8.1798645420E-01
  2.9732441472E+04  1.1089019355E+01  6.0297523610E+00  9.2700540683E-01  7.4919501831E-01  8.1869707443E-01
  2.9829431438E+04  1.1147065586E+01  6.0287145604E+00  9.3624024186E-01  7.5546705029E-01  8.1940492471E-01
  2.9926421405E+04  1.1205225754E+01  6.0276803065E+00  9.4553659569E-01  7.6176204425E-01  8.2011001728E-01
  3.0023411371E+04  1.1263499712E+01  6.0266495757E+00  9.5491316681E-01  7.6809182898E-01  8.2081236436E-01
  3.0120401338E+04  1.1321891353E+01  6.0256518794E+00  9.6441057404E-01  7.7448272262E-01  8.2151197809E-01
  3.0217391304E+04  1.1380403702E+01  6.0247097762E+00  9.7397140086E-01  7.8089759763E-01  8.2220887058E-01
  3.0314381271E+04  1.1439029484E+01  6.0237708387E+00  9.8359586469E-01  7.8733543005E-01  8.2290305390E-01
  3.0411371237E+04  1.1497768556E+01  6.0228350462E+00  9.9328418300E-01  7.9379607923E-01  8.2359454005E-01
  3.0508361204E+04  1.1556620774E+01  6.0219023781E+00  1.0030365733E+00  8.0027940338E-01  8.2428334100E-01
  3.0605351171E+04  1.1615586332E+01  6.0209739075E+00  1.0128532531E+00  8.0678528086E-01  8.2496946867E-01
  3.0702341137E+04  1.1674689198E+01  6.0201274540E+00  1.0227344399E+00  8.1331510644E-01  8.2565293491E-01
  3.0799331104E+04  1.1733904957E+01  6.0192837886E+00  1.0326803515E+00  8.1986722032E-01  8.2633375156E-01
  3.0896321070E+04  1.1793233467E+01  6.0184428936E+00  1.0426912055E+00  8.2644147703E-01  8.2701193037E-01
  3.0993311037E+04  1.1852674588E+01  6.0176047511E+00  1.0527672196E+00  8.3303773005E-01  8.2768748308E-01
  3.1090301003E+04  1.1912228181E+01  6.0167693435E+00  1.0629086115E+00  8.3965583181E-01  8.2836042136E-01
  3.1187290970E+04  1.1971918750E+01  6.0159816692E+00  1.0731155990E+00  8.4629664773E-01  8.2903075683E-01
