#[MATERIAL DEFINITION FOR MC-GPU: interaction mean free path and sampling data from PENELOPE 2006]
#[MATERIAL NAME]
# MATERIAL8                                                     
#[NOMINAL DENSITY (g/cm^3)]
#   1.00000000
#[NUMBER OF DATA VALUES]
#   1495
#[MEAN FREE PATHS (cm) (ie, average distance between interactions)]
#[Energy (eV)     | Rayleigh        | Compton         | Photoelectric   | TOTAL (+pair prod) (cm) | Rayleigh: max cumul prob F^2]
  5.0000000000E+03  1.8888107613E+00  8.4294862916E+00  2.4502246620E-02  2.4119255873E-02  3.4503420098E-01
  5.0969899666E+03  1.9308057614E+00  8.3324537504E+00  2.5961722548E-02  2.5538755009E-02  3.4998467260E-01
  5.1939799331E+03  1.9732704052E+00  8.2403670327E+00  2.7478054756E-02  2.7011838504E-02  3.5482918390E-01
  5.2909698997E+03  2.0161950574E+00  8.1528871656E+00  2.9052328655E-02  2.8539392335E-02  3.5957251622E-01
  5.3879598662E+03  2.0595699329E+00  8.0697028206E+00  3.0685629484E-02  3.0122293806E-02  3.6421917618E-01
  5.4849498328E+03  2.1033851264E+00  7.9905276367E+00  3.2380081427E-02  3.1762411168E-02  3.6877376376E-01
  5.5819397993E+03  2.1476306430E+00  7.9150978489E+00  3.4148384620E-02  3.3471758790E-02  3.7324074650E-01
  5.6789297659E+03  2.1922964284E+00  7.8431701821E+00  3.5980184101E-02  3.5240156589E-02  3.7762429064E-01
  5.7759197324E+03  2.2373724004E+00  7.7745199770E+00  3.7877028827E-02  3.7068883033E-02  3.8192847283E-01
  5.8729096990E+03  2.2828484804E+00  7.7089395186E+00  3.9840218450E-02  3.8958965443E-02  3.8615730797E-01
  5.9698996656E+03  2.3287146301E+00  7.6462365383E+00  4.1870395397E-02  4.0910792107E-02  3.9031454983E-01
  6.0668896321E+03  2.3749611268E+00  7.5862326320E+00  4.3975684594E-02  4.2931875218E-02  3.9440375167E-01
  6.1638795987E+03  2.4215790268E+00  7.5287616719E+00  4.6154086392E-02  4.5020037531E-02  3.9842847823E-01
  6.2608695652E+03  2.4685601501E+00  7.4736688591E+00  4.8403750242E-02  4.7173251925E-02  4.0239211827E-01
  6.3578595318E+03  2.5158964831E+00  7.4208104075E+00  5.0725844196E-02  4.9392361306E-02  4.0629785053E-01
  6.4548494983E+03  2.5635925083E+00  7.3701198783E+00  5.3121536879E-02  5.1678205377E-02  4.1014866469E-01
  6.5518394649E+03  2.6116423771E+00  7.3214836571E+00  5.5592101994E-02  5.4031705684E-02  4.1394738707E-01
  6.6488294314E+03  2.6600252102E+00  7.2747147534E+00  5.8138652573E-02  5.6453607794E-02  4.1769680086E-01
  6.7458193980E+03  2.7087331985E+00  7.2297042026E+00  6.0762322701E-02  5.8944672645E-02  4.2139954950E-01
  6.8428093645E+03  2.7577587570E+00  7.1863505163E+00  6.3464283590E-02  6.1505683149E-02  4.2505811889E-01
  6.9397993311E+03  2.8070945548E+00  7.1445591300E+00  6.6245706975E-02  6.4137409298E-02  4.2867486738E-01
  7.0367892977E+03  2.8567347057E+00  7.1042482947E+00  6.9118751808E-02  6.6850886721E-02  4.3225203817E-01
  7.1337792642E+03  2.9067063992E+00  7.0655207183E+00  7.2093017090E-02  6.9654698564E-02  4.3579177722E-01
  7.2307692308E+03  2.9569691312E+00  7.0281074001E+00  7.5152395901E-02  7.2533328613E-02  4.3929608495E-01
  7.3277591973E+03  3.0075175624E+00  6.9919358822E+00  7.8298128600E-02  7.5487539825E-02  4.4276683917E-01
  7.4247491639E+03  3.0583465852E+00  6.9569385815E+00  8.1531456595E-02  7.8518080588E-02  4.4620583926E-01
  7.5217391304E+03  3.1094693372E+00  6.9231491662E+00  8.4853622325E-02  8.1625710292E-02  4.4961481369E-01
  7.6187290970E+03  3.1608851765E+00  6.8905321041E+00  8.8265869248E-02  8.4811159038E-02  4.5299540846E-01
  7.7157190635E+03  3.2125660852E+00  6.8589072085E+00  9.1769441823E-02  8.8075098642E-02  4.5634910713E-01
  7.8127090301E+03  3.2645076287E+00  6.8282226890E+00  9.5365585501E-02  9.1418216480E-02  4.5967730726E-01
  7.9096989967E+03  3.3167305739E+00  6.7985650507E+00  9.9055546705E-02  9.4841230598E-02  4.6298136157E-01
  8.0066889632E+03  3.3692216180E+00  6.7698432352E+00  1.0284191782E-01  9.8346017682E-02  4.6626258158E-01
  8.1036789298E+03  3.4219593556E+00  6.7419188791E+00  1.0674342110E-01  1.0194911602E-01  4.6952218369E-01
  8.2006688963E+03  3.4749476976E+00  6.7147915159E+00  1.1074374861E-01  1.0563505849E-01  4.7276124244E-01
  8.2976588629E+03  3.5282128986E+00  6.6885780934E+00  1.1484418576E-01  1.0940454403E-01  4.7598079356E-01
  8.3946488294E+03  3.5817143557E+00  6.6630436370E+00  1.1904601912E-01  1.1325810261E-01  4.7918184888E-01
  8.4916387960E+03  3.6354507767E+00  6.6381637017E+00  1.2335061372E-01  1.1719639933E-01  4.8236538156E-01
  8.5886287625E+03  3.6894620386E+00  6.6141268018E+00  1.2776032377E-01  1.2122108596E-01  4.8553223246E-01
  8.6856187291E+03  3.7436999873E+00  6.5906691483E+00  1.3227537596E-01  1.2533164075E-01  4.8868318171E-01
  8.7826086957E+03  3.7981674934E+00  6.5677911426E+00  1.3689706393E-01  1.2952861816E-01  4.9181899657E-01
  8.8795986622E+03  3.8528977310E+00  6.5456473737E+00  1.4162668244E-01  1.3381265788E-01  4.9494042677E-01
  8.9765886288E+03  3.9078457678E+00  6.5239988720E+00  1.4646552740E-01  1.3818413394E-01  4.9804812469E-01
  9.0735785953E+03  3.9630263681E+00  6.5029078067E+00  1.5143774602E-01  1.4266386839E-01  5.0114267031E-01
  9.1705685619E+03  4.0184504865E+00  6.4824154720E+00  1.5653053909E-01  1.4723972622E-01  5.0422463635E-01
  9.2675585284E+03  4.0740850832E+00  6.4623484092E+00  1.6173817743E-01  1.5190576754E-01  5.0729458623E-01
  9.3645484950E+03  4.1299641893E+00  6.4428582074E+00  1.6706200367E-01  1.5666258525E-01  5.1035300614E-01
  9.4615384615E+03  4.1860626472E+00  6.4238134669E+00  1.7250336180E-01  1.6151051838E-01  5.1340031908E-01
  9.5585284281E+03  4.2423759622E+00  6.4051844886E+00  1.7806539574E-01  1.6645153407E-01  5.1643694482E-01
  9.6555183946E+03  4.2989312195E+00  6.3870838866E+00  1.8374841417E-01  1.7148523695E-01  5.1946329550E-01
  9.7525083612E+03  4.3556860931E+00  6.3693122048E+00  1.8955315332E-01  1.7661126810E-01  5.2247971240E-01
  9.8494983278E+03  4.4126798853E+00  6.3520346767E+00  1.9548096666E-01  1.8183017993E-01  5.2548649501E-01
  9.9464882943E+03  4.4698802302E+00  6.3351011243E+00  2.0153320901E-01  1.8714214801E-01  5.2848394332E-01
  1.0043478261E+04  4.5272978208E+00  6.3185505965E+00  2.0772300208E-01  1.9255765426E-01  5.3147236984E-01
  1.0140468227E+04  4.5849382602E+00  6.3023937142E+00  2.1405539177E-01  1.9808007744E-01  5.3445200601E-01
  1.0237458194E+04  4.6427779527E+00  6.2865286166E+00  2.2051765224E-01  2.0369739501E-01  5.3742301274E-01
  1.0334448161E+04  4.7008571209E+00  6.2710953381E+00  2.2711117476E-01  2.0941010173E-01  5.4038555378E-01
  1.0431438127E+04  4.7591237303E+00  6.2558925846E+00  2.3383735210E-01  2.1521812718E-01  5.4333979591E-01
  1.0528428094E+04  4.8176378816E+00  6.2411217595E+00  2.4069757848E-01  2.2112205464E-01  5.4628590887E-01
  1.0625418060E+04  4.8763409330E+00  6.2265717591E+00  2.4769324961E-01  2.2712171481E-01  5.4922406525E-01
  1.0722408027E+04  4.9352818461E+00  6.2123947615E+00  2.5482576263E-01  2.3321759219E-01  5.5215441795E-01
  1.0819397993E+04  4.9944210886E+00  6.1984550109E+00  2.6209651613E-01  2.3940957944E-01  5.5507702213E-01
  1.0916387960E+04  5.0537903325E+00  6.1848414879E+00  2.6950691012E-01  2.4569801696E-01  5.5799191545E-01
  1.1013377926E+04  5.1133653315E+00  6.1714724729E+00  2.7705834601E-01  2.5208284382E-01  5.6089914009E-01
  1.1110367893E+04  5.1731646425E+00  6.1583940102E+00  2.8475222661E-01  2.5856427513E-01  5.6379874222E-01
  1.1207357860E+04  5.2331747571E+00  6.1455589734E+00  2.9260507345E-01  2.6515468678E-01  5.6669077188E-01
  1.1304347826E+04  5.2934060297E+00  6.1329889376E+00  3.0064383787E-01  2.7187493380E-01  5.6957528249E-01
  1.1401337793E+04  5.3538503924E+00  6.1206536682E+00  3.0883179218E-01  2.7869349441E-01  5.7245229364E-01
  1.1498327759E+04  5.4145156702E+00  6.1085670636E+00  3.1717039658E-01  2.8561043703E-01  5.7532176833E-01
  1.1595317726E+04  5.4753931661E+00  6.0966997072E+00  3.2566111291E-01  2.9262567093E-01  5.7818367033E-01
  1.1692307692E+04  5.5364946338E+00  6.0850730473E+00  3.3430540468E-01  2.9973925132E-01  5.8103796784E-01
  1.1789297659E+04  5.5978038807E+00  6.0736439333E+00  3.4310473702E-01  3.0695097782E-01  5.8388463332E-01
  1.1886287625E+04  5.6593438560E+00  6.0624551236E+00  3.5206057669E-01  3.1426095352E-01  5.8672364332E-01
  1.1983277592E+04  5.7210831845E+00  6.0514366079E+00  3.6117439205E-01  3.2166880055E-01  5.8955496626E-01
  1.2080267559E+04  5.7830641108E+00  6.0406648402E+00  3.7044765306E-01  3.2917474467E-01  5.9237852454E-01
  1.2177257525E+04  5.8452315454E+00  6.0300311628E+00  3.7988183127E-01  3.3677814849E-01  5.9519423444E-01
  1.2274247492E+04  5.9076559840E+00  6.0196568185E+00  3.8947839980E-01  3.4447945029E-01  5.9800201687E-01
  1.2371237458E+04  5.9702492253E+00  6.0093839734E+00  3.9923883332E-01  3.5227765553E-01  6.0080179723E-01
  1.2468227425E+04  6.0331199039E+00  5.9993885669E+00  4.0916460807E-01  3.6017352154E-01  6.0359350518E-01
  1.2565217391E+04  6.0961577798E+00  5.9894870466E+00  4.1926872257E-01  3.6817466802E-01  6.0637710573E-01
  1.2662207358E+04  6.1594579708E+00  5.9798212995E+00  4.2954735191E-01  3.7627749922E-01  6.0915255828E-01
  1.2759197324E+04  6.2229470538E+00  5.9702774545E+00  4.3999649507E-01  3.8447677390E-01  6.1191975835E-01
  1.2856187291E+04  6.2866755489E+00  5.9609204995E+00  4.5061764849E-01  3.9277263854E-01  6.1467860526E-01
  1.2953177258E+04  6.3506243702E+00  5.9517209771E+00  4.6141231023E-01  4.0116458075E-01  6.1742900280E-01
  1.3050167224E+04  6.4147804525E+00  5.9426551311E+00  4.7238197991E-01  4.0965208973E-01  6.2017085928E-01
  1.3147157191E+04  6.4791980163E+00  5.9337873915E+00  4.8352815872E-01  4.1823532824E-01  6.2290408601E-01
  1.3244147157E+04  6.5437818515E+00  5.9249979188E+00  4.9485234939E-01  4.2691292282E-01  6.2562855267E-01
  1.3341137124E+04  6.6086756168E+00  5.9164480301E+00  5.0635605621E-01  4.3568590068E-01  6.2834411953E-01
  1.3438127090E+04  6.6737376742E+00  5.9079742964E+00  5.1804078499E-01  4.4455236826E-01  6.3105065184E-01
  1.3535117057E+04  6.7390640308E+00  5.8996756592E+00  5.2990804307E-01  4.5351283112E-01  6.3374801984E-01
  1.3632107023E+04  6.8046139161E+00  5.8915066073E+00  5.4195933930E-01  4.6256638666E-01  6.3643609858E-01
  1.3729096990E+04  6.8703692897E+00  5.8834443870E+00  5.5422642369E-01  4.7173421393E-01  6.3911476786E-01
  1.3826086957E+04  6.9364168251E+00  5.8755695093E+00  5.6673391949E-01  4.8103301489E-01  6.4178391214E-01
  1.3923076923E+04  7.0026309370E+00  5.8677601113E+00  5.7943311341E-01  4.9042422472E-01  6.4444342040E-01
  1.4020066890E+04  7.0691517472E+00  5.8601388827E+00  5.9232557358E-01  4.9990880940E-01  6.4709318612E-01
  1.4117056856E+04  7.1358741413E+00  5.8526102352E+00  6.0541286990E-01  5.0948501069E-01  6.4973310537E-01
  1.4214046823E+04  7.2028230670E+00  5.8451917557E+00  6.1869657400E-01  5.1915246509E-01  6.5236304826E-01
  1.4311036789E+04  7.2700640766E+00  5.8379345314E+00  6.3217825921E-01  5.2891131184E-01  6.5498287374E-01
  1.4408026756E+04  7.3374722713E+00  5.8307352449E+00  6.4585950062E-01  5.3875942034E-01  6.5759244736E-01
  1.4505016722E+04  7.4052042829E+00  5.8237115461E+00  6.5974187498E-01  5.4869796324E-01  6.6019163976E-01
  1.4602006689E+04  7.4731424531E+00  5.8167717811E+00  6.7382696075E-01  5.5872485525E-01  6.6278032654E-01
  1.4698996656E+04  7.5412972079E+00  5.8099208121E+00  6.8811633809E-01  5.6883947381E-01  6.6535838826E-01
  1.4795986622E+04  7.6097761420E+00  5.8032322532E+00  7.0261158881E-01  5.7904243704E-01  6.6792571027E-01
  1.4892976589E+04  7.6784233808E+00  5.7965950206E+00  7.1731429639E-01  5.8933104027E-01  6.7048218271E-01
  1.4989966555E+04  7.7473748157E+00  5.7900975234E+00  7.3222604598E-01  5.9970621862E-01  6.7302770034E-01
  1.5086956522E+04  7.8165748898E+00  5.7837009346E+00  7.4738807057E-01  6.1019293029E-01  6.7556216178E-01
  1.5183946488E+04  7.8859436771E+00  5.7773523351E+00  7.6276835429E-01  6.2076653313E-01  6.7808545301E-01
  1.5280936455E+04  7.9557033179E+00  5.7711862687E+00  7.7836401679E-01  6.3142613531E-01  6.8059745228E-01
  1.5377926421E+04  8.0256378332E+00  5.7650687425E+00  7.9417667481E-01  6.4216803250E-01  6.8309804331E-01
  1.5474916388E+04  8.0958081251E+00  5.7590340979E+00  8.1020794687E-01  6.5299214835E-01  6.8558711490E-01
  1.5571906355E+04  8.1663205521E+00  5.7531411678E+00  8.2645945319E-01  6.6389910471E-01  6.8806456082E-01
  1.5668896321E+04  8.2370035777E+00  5.7472908022E+00  8.4293281574E-01  6.7488562087E-01  6.9053027975E-01
  1.5765886288E+04  8.3079900856E+00  5.7415536931E+00  8.5962965816E-01  6.8595264313E-01  6.9298417521E-01
  1.5862876254E+04  8.3792647908E+00  5.7359195168E+00  8.7655160584E-01  6.9709907558E-01  6.9542615547E-01
  1.5959866221E+04  8.4507109079E+00  5.7303251629E+00  8.9370028582E-01  7.0832226523E-01  6.9785613345E-01
  1.6056856187E+04  8.5225221157E+00  5.7248671919E+00  9.1107732686E-01  7.1962410486E-01  7.0027402176E-01
  1.6153846154E+04  8.5945740354E+00  5.7194811282E+00  9.2868435937E-01  7.3100182841E-01  7.0267972291E-01
  1.6250836120E+04  8.6667983168E+00  5.7141323284E+00  9.4652301542E-01  7.4245338492E-01  7.0507314240E-01
  1.6347826087E+04  8.7394413310E+00  5.7089360713E+00  9.6459492877E-01  7.5398156368E-01  7.0745419071E-01
  1.6444816054E+04  8.8122858780E+00  5.7037881309E+00  9.8290173480E-01  7.6558205449E-01  7.0982278323E-01
  1.6541806020E+04  8.8853065400E+00  5.6986762512E+00  1.0014450705E+00  7.7725338660E-01  7.1217884019E-01
  1.6638795987E+04  8.9587843233E+00  5.6937239966E+00  1.0202265747E+00  7.8899902263E-01  7.1452228650E-01
  1.6735785953E+04  9.0324373699E+00  5.6888047918E+00  1.0392478874E+00  8.0081345247E-01  7.1685305177E-01
  1.6832775920E+04  9.1062857671E+00  5.6839268821E+00  1.0585106507E+00  8.1269589066E-01  7.1917107013E-01
  1.6929765886E+04  9.1805870300E+00  5.6791966556E+00  1.0780165081E+00  8.2464955517E-01  7.2147627583E-01
  1.7026755853E+04  9.2550648921E+00  5.6744973540E+00  1.0977671047E+00  8.3666882622E-01  7.2376859659E-01
  1.7123745819E+04  9.3297432494E+00  5.6698382587E+00  1.1177640870E+00  8.4875296485E-01  7.2604796342E-01
  1.7220735786E+04  9.4048846060E+00  5.6653216069E+00  1.1380091036E+00  8.6090540348E-01  7.2831431213E-01
  1.7317725753E+04  9.4802040279E+00  5.6608338900E+00  1.1585038041E+00  8.7312018342E-01  7.3056758318E-01
  1.7414715719E+04  9.5557128105E+00  5.6563791873E+00  1.1792498400E+00  8.8539633023E-01  7.3280772163E-01
  1.7511705686E+04  9.6317111253E+00  5.6520681510E+00  1.2002694202E+00  8.9774957563E-01  7.3503467703E-01
  1.7608695652E+04  9.7078890988E+00  5.6477841844E+00  1.2216962682E+00  9.1024638411E-01  7.3724840333E-01
  1.7705685619E+04  9.7842461628E+00  5.6435269698E+00  1.2433845703E+00  9.2280234917E-01  7.3944887350E-01
  1.7802675585E+04  9.8610977256E+00  5.6394072866E+00  1.2653360547E+00  9.3542212944E-01  7.4163611247E-01
  1.7899665552E+04  9.9381499245E+00  5.6353197576E+00  1.2875524513E+00  9.4809919348E-01  7.4381008680E-01
  1.7996655518E+04  1.0015382926E+01  5.6312572559E+00  1.3100354922E+00  9.6083193443E-01  7.4597075911E-01
  1.8093645485E+04  1.0093070489E+01  5.6273116784E+00  1.3327869110E+00  9.7362440458E-01  7.4811809621E-01
  1.8190635452E+04  1.0171011885E+01  5.6234137257E+00  1.3558084432E+00  9.8647164562E-01  7.5025206897E-01
  1.8287625418E+04  1.0249135894E+01  5.6195391797E+00  1.3791018262E+00  9.9937104130E-01  7.5237265226E-01
  1.8384615385E+04  1.0327652418E+01  5.6157554345E+00  1.4026687992E+00  1.0123255378E+00  7.5447982481E-01
  1.8481605351E+04  1.0406498222E+01  5.6120405712E+00  1.4265111030E+00  1.0253327663E+00  7.5657356251E-01
  1.8578595318E+04  1.0485528549E+01  5.6083475904E+00  1.4506304804E+00  1.0383885966E+00  7.5865381278E-01
  1.8675585284E+04  1.0564865227E+01  5.6047139174E+00  1.4750286758E+00  1.0514942816E+00  7.6072056756E-01
  1.8772575251E+04  1.0644630895E+01  5.6011760045E+00  1.4997103193E+00  1.0646526850E+00  7.6277382992E-01
  1.8869565217E+04  1.0724583091E+01  5.5976585396E+00  1.5246758504E+00  1.0778568816E+00  7.6481360602E-01
  1.8966555184E+04  1.0804729279E+01  5.5941636573E+00  1.5499255746E+00  1.0911050155E+00  7.6683990500E-01
  1.9063545151E+04  1.0885430497E+01  5.5907968801E+00  1.5754612452E+00  1.1044036496E+00  7.6885273887E-01
  1.9160535117E+04  1.0966320345E+01  5.5874491996E+00  1.6012846173E+00  1.1177437612E+00  7.7085212249E-01
  1.9257525084E+04  1.1047398305E+01  5.5841204116E+00  1.6273974478E+00  1.1311240555E+00  7.7283806436E-01
  1.9354515050E+04  1.1128916160E+01  5.5808811199E+00  1.6538014953E+00  1.1445488833E+00  7.7481054398E-01
  1.9451505017E+04  1.1210759665E+01  5.5776977890E+00  1.6804985200E+00  1.1580145895E+00  7.7676955076E-01
  1.9548494983E+04  1.1292793489E+01  5.5745320939E+00  1.7074902840E+00  1.1715169024E+00  7.7871507883E-01
  1.9645484950E+04  1.1375105461E+01  5.5714076428E+00  1.7347785510E+00  1.1850565633E+00  7.8064712607E-01
  1.9742474916E+04  1.1457918839E+01  5.5683835039E+00  1.7623650864E+00  1.1986375754E+00  7.8256569400E-01
  1.9839464883E+04  1.1540924840E+01  5.5653758149E+00  1.7902516575E+00  1.2122516356E+00  7.8447078769E-01
  1.9936454849E+04  1.1624122965E+01  5.5623844066E+00  1.8184400330E+00  1.2258974560E+00  7.8636241559E-01
  2.0033444816E+04  1.1707813466E+01  5.5594864489E+00  1.8469451777E+00  1.2395869098E+00  7.8824058623E-01
  2.0130434783E+04  1.1791807435E+01  5.5566319262E+00  1.8757814391E+00  1.2533198506E+00  7.9010530571E-01
  2.0227424749E+04  1.1875995928E+01  5.5537925790E+00  1.9049258736E+00  1.2670811842E+00  7.9195658310E-01
  2.0324414716E+04  1.1960455761E+01  5.5509875688E+00  1.9343802703E+00  1.2808715445E+00  7.9379443088E-01
  2.0421404682E+04  1.2045449618E+01  5.5482815704E+00  1.9641464199E+00  1.2946963136E+00  7.9561886490E-01
  2.0518394649E+04  1.2130640453E+01  5.5455897034E+00  1.9942261147E+00  1.3085459782E+00  7.9742990424E-01
  2.0615384615E+04  1.2216027786E+01  5.5429118275E+00  2.0246211489E+00  1.3224192706E+00  7.9922757107E-01
  2.0712374582E+04  1.2301854461E+01  5.5403066486E+00  2.0553333182E+00  1.3363212220E+00  8.0101187556E-01
  2.0809364548E+04  1.2388058210E+01  5.5377578884E+00  2.0863644202E+00  1.3502491628E+00  8.0278284601E-01
  2.0906354515E+04  1.2474460955E+01  5.5352221443E+00  2.1177162540E+00  1.3641972972E+00  8.0454053080E-01
  2.1003344482E+04  1.2561062229E+01  5.5326992902E+00  2.1493906205E+00  1.3781643789E+00  8.0628498025E-01
  2.1100334448E+04  1.2648249197E+01  5.5302799791E+00  2.1813893221E+00  1.3921596156E+00  8.0801624658E-01
  2.1197324415E+04  1.2735677933E+01  5.5278822544E+00  2.2137141632E+00  1.4061727427E+00  8.0973438380E-01
  2.1294314381E+04  1.2823307740E+01  5.5254965081E+00  2.2463669495E+00  1.4202014603E+00  8.1143944763E-01
  2.1391304348E+04  1.2911212068E+01  5.5231395161E+00  2.2793494886E+00  1.4342465992E+00  8.1313148257E-01
  2.1488294314E+04  1.2999677338E+01  5.5208758902E+00  2.3126635895E+00  1.4483150472E+00  8.1481051415E-01
  2.1585284281E+04  1.3088346260E+01  5.5186233799E+00  2.3463110632E+00  1.4623957965E+00  8.1647657061E-01
  2.1682274247E+04  1.3177218386E+01  5.5163818811E+00  2.3802937219E+00  1.4764876500E+00  8.1812968315E-01
  2.1779264214E+04  1.3266456410E+01  5.5141874262E+00  2.4146133798E+00  1.4905941179E+00  8.1976988586E-01
  2.1876254181E+04  1.3356174987E+01  5.5120644575E+00  2.4492718526E+00  1.5047174988E+00  8.2139721557E-01
  2.1973244147E+04  1.3446099392E+01  5.5099516922E+00  2.4842709575E+00  1.5188487939E+00  8.2301171180E-01
  2.2070234114E+04  1.3536229186E+01  5.5078490367E+00  2.5196125135E+00  1.5329868395E+00  8.2461341663E-01
  2.2167224080E+04  1.3626789701E+01  5.5058048865E+00  2.5552983410E+00  1.5471372191E+00  8.2620237460E-01
  2.2264214047E+04  1.3717776917E+01  5.5038173695E+00  2.5913302621E+00  1.5612988596E+00  8.2777863263E-01
  2.2361204013E+04  1.3808972192E+01  5.5018392047E+00  2.6277114168E+00  1.5754646435E+00  8.2934223990E-01
  2.2458193980E+04  1.3900375096E+01  5.4998703080E+00  2.6646972809E+00  1.5897237117E+00  8.3089324778E-01
  2.2555183946E+04  1.3992245238E+01  5.4979647722E+00  2.7020407260E+00  1.6039925498E+00  8.3243170973E-01
  2.2652173913E+04  1.4084516511E+01  5.4961078065E+00  2.7397436457E+00  1.6182681879E+00  8.3395767990E-01
  2.2749163880E+04  1.4176998126E+01  5.4942593980E+00  2.7778079352E+00  1.6325436795E+00  8.3547120529E-01
  2.2846153846E+04  1.4269689665E+01  5.4924194710E+00  2.8162354916E+00  1.6468179147E+00  8.3697233149E-01
  2.2943143813E+04  1.4362854874E+01  5.4906413630E+00  2.8550282139E+00  1.6610982157E+00  8.3846110647E-01
  2.3040133779E+04  1.4456425699E+01  5.4889103305E+00  2.8941880027E+00  1.6753815246E+00  8.3993758051E-01
  2.3137123746E+04  1.4550209205E+01  5.4871871120E+00  2.9337167604E+00  1.6896606765E+00  8.4140180609E-01
  2.3234113712E+04  1.4644204981E+01  5.4854716396E+00  2.9736163913E+00  1.7039346046E+00  8.4285383781E-01
  2.3331103679E+04  1.4738648953E+01  5.4838102406E+00  3.0138888012E+00  1.7182100197E+00  8.4429373229E-01
  2.3428093645E+04  1.4833534899E+01  5.4822007849E+00  3.0545358981E+00  1.7324858637E+00  8.4572154804E-01
  2.3525083612E+04  1.4928635917E+01  5.4805984479E+00  3.0955595912E+00  1.7467537184E+00  8.4713734543E-01
  2.3622073579E+04  1.5023951605E+01  5.4790031689E+00  3.1369617919E+00  1.7610125627E+00  8.4854118656E-01
  2.3719063545E+04  1.5119656248E+01  5.4774481952E+00  3.1787444131E+00  1.7752672935E+00  8.4993313521E-01
  2.3816053512E+04  1.5215872949E+01  5.4759562029E+00  3.2209093696E+00  1.7895212482E+00  8.5131325669E-01
  2.3913043478E+04  1.5312307166E+01  5.4744706782E+00  3.2634585776E+00  1.8037635672E+00  8.5268161409E-01
  2.4010033445E+04  1.5408958506E+01  5.4729915670E+00  3.3063939555E+00  1.8179932765E+00  8.5403826442E-01
  2.4107023411E+04  1.5505903896E+01  5.4715331407E+00  3.3497174230E+00  1.8322120996E+00  8.5538326561E-01
  2.4204013378E+04  1.5603467047E+01  5.4701547236E+00  3.3934309017E+00  1.8464304774E+00  8.5671667747E-01
  2.4301003344E+04  1.5701250210E+01  5.4687821642E+00  3.4375363150E+00  1.8606337643E+00  8.5803856156E-01
  2.4397993311E+04  1.5799252999E+01  5.4674154144E+00  3.4820355877E+00  1.8748210349E+00  8.5934898110E-01
  2.4494983278E+04  1.5897475033E+01  5.4660544267E+00  3.5269306467E+00  1.8889913759E+00  8.6064800091E-01
  2.4591973244E+04  1.5996342683E+01  5.4647755156E+00  3.5722234201E+00  1.9031591885E+00  8.6193568729E-01
  2.4688963211E+04  1.6095490590E+01  5.4635122813E+00  3.6179158382E+00  1.9173107060E+00  8.6321210799E-01
  2.4785953177E+04  1.6194860680E+01  5.4622542902E+00  3.6640098325E+00  1.9314429967E+00  8.6447733204E-01
  2.4882943144E+04  1.6294452578E+01  5.4610015001E+00  3.7105073366E+00  1.9455551971E+00  8.6573142979E-01
  2.4979933110E+04  1.6394523109E+01  5.4597986911E+00  3.7574102854E+00  1.9596559048E+00  8.6697447364E-01
  2.5076923077E+04  1.6495050710E+01  5.4586413054E+00  3.8048067973E+00  1.9737668605E+00  8.6820656594E-01
  2.5173913043E+04  1.6595803093E+01  5.4574886315E+00  3.8526372242E+00  1.9878616295E+00  8.6942779067E-01
  2.5270903010E+04  1.6696779893E+01  5.4563406320E+00  3.9008812900E+00  2.0019333424E+00  8.7063821741E-01
  2.5367892977E+04  1.6798026786E+01  5.4552051646E+00  3.9495409608E+00  2.0159829333E+00  8.7183791680E-01
  2.5464882943E+04  1.6899943049E+01  5.4541501437E+00  3.9986182041E+00  2.0300248377E+00  8.7302696055E-01
  2.5561872910E+04  1.7002086688E+01  5.4530993363E+00  4.0481149893E+00  2.0440416670E+00  8.7420542132E-01
  2.5658862876E+04  1.7104457346E+01  5.4520527099E+00  4.0980332874E+00  2.0580326518E+00  8.7537337265E-01
  2.5755852843E+04  1.7207054666E+01  5.4510102319E+00  4.1483750713E+00  2.0719970355E+00  8.7653088893E-01
  2.5852842809E+04  1.7310164929E+01  5.4500201477E+00  4.1991423154E+00  2.0859453084E+00  8.7767804530E-01
  2.5949832776E+04  1.7413706038E+01  5.4490678567E+00  4.2503369960E+00  2.0998736965E+00  8.7881491761E-01
  2.6046822742E+04  1.7517476741E+01  5.4481192837E+00  4.3019610909E+00  2.1137736483E+00  8.7994158234E-01
  2.6143812709E+04  1.7621476689E+01  5.4471744006E+00  4.3540165797E+00  2.1276444572E+00  8.8105811121E-01
  2.6240802676E+04  1.7725706560E+01  5.4462333502E+00  4.4065054437E+00  2.1414854706E+00  8.8216456254E-01
  2.6337792642E+04  1.7830650962E+01  5.4453763922E+00  4.4594296659E+00  2.1553156723E+00  8.8326100194E-01
  2.6434782609E+04  1.7935827504E+01  5.4445227183E+00  4.5127912309E+00  2.1691150404E+00  8.8434749654E-01
  2.6531772575E+04  1.8041235847E+01  5.4436723039E+00  4.5665921251E+00  2.1828829179E+00  8.8542411451E-01
  2.6628762542E+04  1.8146875650E+01  5.4428251248E+00  4.6208343365E+00  2.1966186603E+00  8.8649092495E-01
  2.6725752508E+04  1.8252910121E+01  5.4420079515E+00  4.6755198546E+00  2.2103284538E+00  8.8754799782E-01
  2.6822742475E+04  1.8359497914E+01  5.4412461766E+00  4.7306506708E+00  2.2240184317E+00  8.8859540393E-01
  2.6919732441E+04  1.8466320033E+01  5.4404872574E+00  4.7862287782E+00  2.2376747621E+00  8.8963321481E-01
  2.7016722408E+04  1.8573376147E+01  5.4397311729E+00  4.8422561712E+00  2.2512968487E+00  8.9066150269E-01
  2.7113712375E+04  1.8680665925E+01  5.4389779023E+00  4.8987348462E+00  2.2648841078E+00  8.9168034043E-01
  2.7210702341E+04  1.8788475192E+01  5.4382735710E+00  4.9556668011E+00  2.2784482760E+00  8.9268980072E-01
  2.7307692308E+04  1.8896716088E+01  5.4376033161E+00  5.0130540355E+00  2.2919851692E+00  8.9368995181E-01
  2.7404682274E+04  1.9005193482E+01  5.4369355196E+00  5.0709006646E+00  2.3054863327E+00  8.9468086060E-01
  2.7501672241E+04  1.9113907052E+01  5.4362701641E+00  5.1292156327E+00  2.3189526338E+00  8.9566259479E-01
  2.7598662207E+04  1.9222856476E+01  5.4356072319E+00  5.1879921166E+00  2.3323817017E+00  8.9663522287E-01
  2.7695652174E+04  1.9332409886E+01  5.4350052294E+00  5.2472321245E+00  2.3457893498E+00  8.9759881397E-01
  2.7792642140E+04  1.9442313150E+01  5.4344230467E+00  5.3069376664E+00  2.3591639768E+00  8.9855343788E-01
  2.7889632107E+04  1.9552455071E+01  5.4338429542E+00  5.3671107537E+00  2.3725001975E+00  8.9949916496E-01
  2.7986622074E+04  1.9662835334E+01  5.4332649371E+00  5.4277533997E+00  2.3857975320E+00  9.0043606608E-01
  2.8083612040E+04  1.9773453626E+01  5.4326889808E+00  5.4888676190E+00  2.3990555120E+00  9.0136421257E-01
  2.8180602007E+04  1.9884719772E+01  5.4321792803E+00  5.5504554280E+00  2.4122923788E+00  9.0228367616E-01
  2.8277591973E+04  1.9996294224E+01  5.4316819213E+00  5.6125188447E+00  2.4254923666E+00  9.0319452673E-01
  2.8374581940E+04  2.0108109474E+01  5.4311863105E+00  5.6750598886E+00  2.4386519872E+00  9.0409683046E-01
  2.8471571906E+04  2.0220165217E+01  5.4306924359E+00  5.7380805808E+00  2.4517708158E+00  9.0499065367E-01
  2.8568561873E+04  2.0332461148E+01  5.4302002855E+00  5.8015829441E+00  2.4648484384E+00  9.0587606326E-01
  2.8665551839E+04  2.0445407975E+01  5.4297733134E+00  5.8655690027E+00  2.4779037069E+00  9.0675312662E-01
  2.8762541806E+04  2.0558661985E+01  5.4293577137E+00  5.9300407825E+00  2.4909202786E+00  9.0762191166E-01
  2.8859531773E+04  2.0672158919E+01  5.4289435447E+00  5.9950003110E+00  2.5038947844E+00  9.0848248665E-01
  2.8956521739E+04  2.0785898477E+01  5.4285307968E+00  6.0604496173E+00  2.5168268518E+00  9.0933492026E-01
  2.9053511706E+04  2.0899880363E+01  5.4281194602E+00  6.1263907318E+00  2.5297161192E+00  9.1017928147E-01
  2.9150501672E+04  2.1014475277E+01  5.4277660661E+00  6.1928256869E+00  2.5425800731E+00  9.1101563952E-01
  2.9247491639E+04  2.1129416767E+01  5.4274293322E+00  6.2597565160E+00  2.5554056975E+00  9.1184406268E-01
  2.9344481605E+04  2.1244603285E+01  5.4270937340E+00  6.3271852547E+00  2.5681878062E+00  9.1266461555E-01
  2.9441471572E+04  2.1360034542E+01  5.4267592638E+00  6.3951139395E+00  2.5809260766E+00  9.1347736232E-01
  2.9538461538E+04  2.1475710249E+01  5.4264259141E+00  6.4635446090E+00  2.5936201963E+00  9.1428236763E-01
  2.9635451505E+04  2.1591920218E+01  5.4261373431E+00  6.5324793030E+00  2.6062841632E+00  9.1507969648E-01
  2.9732441472E+04  2.1708556656E+01  5.4258767398E+00  6.6019200629E+00  2.6189124876E+00  9.1586941417E-01
  2.9829431438E+04  2.1825440209E+01  5.4256169976E+00  6.6718689317E+00  2.6314960816E+00  9.1665158631E-01
  2.9926421405E+04  2.1942570594E+01  5.4253581110E+00  6.7423279540E+00  2.6440346696E+00  9.1742627872E-01
  3.0023411371E+04  2.2059947531E+01  5.4251000744E+00  6.8134069201E+00  2.6565443651E+00  9.1819355744E-01
  3.0120401338E+04  2.2177738986E+01  5.4248679190E+00  6.8853436869E+00  2.6690682799E+00  9.1895348879E-01
  3.0217391304E+04  2.2296076798E+01  5.4246807937E+00  6.9578047388E+00  2.6815612972E+00  9.1970614476E-01
  3.0314381271E+04  2.2414663785E+01  5.4244942744E+00  7.0307921925E+00  2.6940082133E+00  9.2045158853E-01
  3.0411371237E+04  2.2533499672E+01  5.4243083574E+00  7.1043081663E+00  2.7064087905E+00  9.2118987877E-01
  3.0508361204E+04  2.2652584186E+01  5.4241230387E+00  7.1783547801E+00  2.7187627999E+00  9.2192107458E-01
  3.0605351171E+04  2.2771923341E+01  5.4239392410E+00  7.2529341557E+00  2.7310703472E+00  9.2264523547E-01
  3.0702341137E+04  2.2891966998E+01  5.4238229258E+00  7.3280484164E+00  2.7433545678E+00  9.2336242128E-01
  3.0799331104E+04  2.3012261853E+01  5.4237069799E+00  7.4036996874E+00  2.7555918710E+00  9.2407269214E-01
  3.0896321070E+04  2.3132807638E+01  5.4235914011E+00  7.4798900952E+00  2.7677820611E+00  9.2477610846E-01
  3.0993311037E+04  2.3253604087E+01  5.4234761870E+00  7.5566217683E+00  2.7799249509E+00  9.2547273086E-01
  3.1090301003E+04  2.3374650934E+01  5.4233613353E+00  7.6338968369E+00  2.7920203616E+00  9.2616262011E-01
  3.1187290970E+04  2.3496210300E+01  5.4232849677E+00  7.7117174325E+00  2.8040820515E+00  9.2684583714E-01
