#[MATERIAL DEFINITION FOR MC-GPU: interaction mean free path and sampling data from PENELOPE 2006]
#[MATERIAL NAME]
# MATERIAL25                                                    
#[NOMINAL DENSITY (g/cm^3)]
#   1.00000000
#[NUMBER OF DATA VALUES]
#   1495
#[MEAN FREE PATHS (cm) (ie, average distance between interactions)]
#[Energy (eV)     | Rayleigh        | Compton         | Photoelectric   | TOTAL (+pair prod) (cm) | Rayleigh: max cumul prob F^2]
  5.0000000000E+03  5.5920861723E-01  1.5096467295E+01  1.4747696354E-03  1.4707472390E-03  2.0263707619E-01
  5.0969899666E+03  5.6815239546E-01  1.4923954382E+01  1.5405772340E-03  1.5362530123E-03  2.0704492358E-01
  5.1939799331E+03  5.7715007374E-01  1.4757404173E+01  1.6125956396E-03  1.6079272798E-03  2.1142820418E-01
  5.2909698997E+03  5.8620105035E-01  1.4596539975E+01  1.6887006301E-03  1.6836556483E-03  2.1578705878E-01
  5.3879598662E+03  5.9530468510E-01  1.4441101465E+01  1.7682021527E-03  1.7627505124E-03  2.2012168304E-01
  5.4849498328E+03  6.0446030246E-01  1.4290843397E+01  1.8499276031E-03  1.8440452644E-03  2.2443223301E-01
  5.5819397993E+03  6.1366719461E-01  1.4145534423E+01  1.9338996390E-03  1.9275616307E-03  2.2871884669E-01
  5.6789297659E+03  6.2292462422E-01  1.4004956039E+01  2.0201378770E-03  2.0133182973E-03  2.3298170951E-01
  5.7759197324E+03  6.3223182716E-01  1.3868901611E+01  2.1097019165E-03  2.1023666973E-03  2.3722105157E-01
  5.8729096990E+03  6.4158801503E-01  1.3737175503E+01  2.2029816455E-03  2.1950924712E-03  2.4143710264E-01
  5.9698996656E+03  6.5099237814E-01  1.3609592233E+01  2.2987560119E-03  2.2902818234E-03  2.4563003703E-01
  6.0668896321E+03  6.6044411179E-01  1.3485973709E+01  2.3978861613E-03  2.3887884041E-03  2.4980005316E-01
  6.1638795987E+03  6.6994246027E-01  1.3366145345E+01  2.5000061984E-03  2.4902476321E-03  2.5394738319E-01
  6.2608695652E+03  6.7948671265E-01  1.3249936565E+01  2.6047786188E-03  2.5943233959E-03  2.5807230736E-01
  6.3578595318E+03  6.8907614218E-01  1.3137185693E+01  2.7122296222E-03  2.7010405831E-03  2.6217501093E-01
  6.4548494983E+03  6.9871417744E-01  1.3027788839E+01  2.8223852578E-03  2.8104239744E-03  2.6625563503E-01
  6.5518394649E+03  7.0840116075E-01  1.2921613669E+01  2.9352714286E-03  2.9224981371E-03  2.7031434845E-01
  6.6488294314E+03  7.1813208818E-01  1.2818473218E+01  3.0509138932E-03  3.0372873729E-03  2.7435134548E-01
  6.7458193980E+03  7.2790614563E-01  1.2718237159E+01  3.1693382699E-03  3.1548158816E-03  2.7836684386E-01
  6.8428093645E+03  7.3772250492E-01  1.2620781772E+01  3.2905700383E-03  3.2751076965E-03  2.8236108304E-01
  6.9397993311E+03  7.4758032581E-01  1.2525989499E+01  3.4146345432E-03  3.3981866872E-03  2.8633431269E-01
  7.0367892977E+03  7.5747923682E-01  1.2433753959E+01  3.5419224558E-03  3.5244384326E-03  2.9028668671E-01
  7.1337792642E+03  7.6743290880E-01  1.2344129827E+01  3.6727308996E-03  3.6541558606E-03  2.9421831757E-01
  7.2307692308E+03  7.7742684789E-01  1.2256856119E+01  3.8065055935E-03  3.7867883578E-03  2.9812933785E-01
  7.3277591973E+03  7.8746035035E-01  1.2171834617E+01  3.9432726590E-03  3.9223604004E-03  3.0201989772E-01
  7.4247491639E+03  7.9753268248E-01  1.2088971859E+01  4.0830580947E-03  4.0608963098E-03  3.0589016362E-01
  7.5217391304E+03  8.0765179042E-01  1.2008269967E+01  4.2258877790E-03  4.2024205014E-03  3.0974031704E-01
  7.6187290970E+03  8.1782017940E-01  1.1929674602E+01  4.3717874718E-03  4.3469571230E-03  3.1357053789E-01
  7.7157190635E+03  8.2802626567E-01  1.1852990475E+01  4.5207828169E-03  4.4945297569E-03  3.1738092849E-01
  7.8127090301E+03  8.3826920832E-01  1.1778140204E+01  4.6728993436E-03  4.6451621293E-03  3.2117157765E-01
  7.9096989967E+03  8.4856214588E-01  1.1705188301E+01  4.8281624693E-03  4.7988782909E-03  3.2494258827E-01
  8.0066889632E+03  8.5890103101E-01  1.1634028227E+01  4.9868604937E-03  4.9559613692E-03  3.2869407600E-01
  8.1036789298E+03  8.6927541355E-01  1.1564496132E+01  5.1524144593E-03  5.1197871345E-03  3.3242616831E-01
  8.2006688963E+03  8.7968886123E-01  1.1496569381E+01  5.3213963749E-03  5.2869673877E-03  3.3613899959E-01
  8.2976588629E+03  8.9015958438E-01  1.1430359737E+01  5.4938354164E-03  5.4575298674E-03  3.3983265750E-01
  8.3946488294E+03  9.0066451111E-01  1.1365596421E+01  5.6697606610E-03  5.6315005895E-03  3.4350720236E-01
  8.4916387960E+03  9.1120363274E-01  1.1302231262E+01  5.8492010880E-03  5.8089062781E-03  3.4716270516E-01
  8.5886287625E+03  9.2180538666E-01  1.1240466142E+01  6.0321855806E-03  5.9897747948E-03  3.5079924718E-01
  8.6856187291E+03  9.3243983624E-01  1.1179987646E+01  6.2187429274E-03  6.1741313565E-03  3.5441691921E-01
  8.7826086957E+03  9.4310967847E-01  1.1120777542E+01  6.4089018233E-03  6.3620024152E-03  3.5801583287E-01
  8.8795986622E+03  9.5384109779E-01  1.1063011996E+01  6.6026908715E-03  6.5534154889E-03  3.6159607777E-01
  8.9765886288E+03  9.6460346362E-01  1.1006392156E+01  6.8001385844E-03  6.7483952104E-03  3.6515766717E-01
  9.0735785953E+03  9.7540883847E-01  1.0950979619E+01  7.0017803823E-03  6.9474673199E-03  3.6870062064E-01
  9.1705685619E+03  9.8626810448E-01  1.0896820705E+01  7.2073269368E-03  7.1503451871E-03  3.7222496710E-01
  9.2675585284E+03  9.9715642078E-01  1.0843682621E+01  7.4166495744E-03  7.3568986099E-03  3.7573074425E-01
  9.3645484950E+03  1.0081024475E+00  1.0791752042E+01  7.6297770569E-03  7.5671554042E-03  3.7921799806E-01
  9.4615384615E+03  1.0190876879E+00  1.0740851318E+01  7.8467380621E-03  7.7811405715E-03  3.8268678219E-01
  9.5585284281E+03  1.0301091494E+00  1.0690927994E+01  8.0675611853E-03  7.9988798337E-03  3.8613715755E-01
  9.6555183946E+03  1.0411918817E+00  1.0642131904E+01  8.2922749401E-03  8.2204006317E-03  3.8956919183E-01
  9.7525083612E+03  1.0523006506E+00  1.0594179040E+01  8.5209077596E-03  8.4457263616E-03  3.9298295885E-01
  9.8494983278E+03  1.0634713917E+00  1.0547294668E+01  8.7534879973E-03  8.6748850460E-03  3.9637849693E-01
  9.9464882943E+03  1.0746771436E+00  1.0501261413E+01  8.9900439284E-03  8.9079002981E-03  3.9975579425E-01
  1.0043478261E+04  1.0859284684E+00  1.0456126308E+01  9.2330128713E-03  9.1471627449E-03  4.0311484894E-01
  1.0140468227E+04  1.0972315807E+00  1.0411902911E+01  9.4831490799E-03  9.3934082601E-03  4.0645566651E-01
  1.0237458194E+04  1.1085655560E+00  1.0368429889E+01  9.7375837166E-03  9.6438158689E-03  4.0977825941E-01
  1.0334448161E+04  1.1199666443E+00  1.0325915528E+01  9.9963488733E-03  9.8984172897E-03  4.1308264670E-01
  1.0431438127E+04  1.1313889064E+00  1.0284045150E+01  1.0259476575E-02  1.0157237398E-02  4.1636885363E-01
  1.0528428094E+04  1.1428852309E+00  1.0243125355E+01  1.0526998783E-02  1.0420309288E-02  4.1963691137E-01
  1.0625418060E+04  1.1544048772E+00  1.0202822205E+01  1.0798947390E-02  1.0687656973E-02  4.2288685661E-01
  1.0722408027E+04  1.1659900952E+00  1.0163369882E+01  1.1075354228E-02  1.0959312623E-02  4.2611872759E-01
  1.0819397993E+04  1.1776074644E+00  1.0124549035E+01  1.1356251064E-02  1.1235301365E-02  4.2933252619E-01
  1.0916387960E+04  1.1892838318E+00  1.0086496973E+01  1.1641669602E-02  1.1515653912E-02  4.3252824121E-01
  1.1013377926E+04  1.2009991121E+00  1.0049078681E+01  1.1931641485E-02  1.1800396299E-02  4.3570586852E-01
  1.1110367893E+04  1.2127688743E+00  1.0012364021E+01  1.2226198294E-02  1.2089558034E-02  4.3886540999E-01
  1.1207357860E+04  1.2245821009E+00  9.9762732934E+00  1.2525371548E-02  1.2383165768E-02  4.4200687318E-01
  1.1304347826E+04  1.2364474927E+00  9.9408371774E+00  1.2829192709E-02  1.2681248148E-02  4.4513027106E-01
  1.1401337793E+04  1.2483585459E+00  9.9060034057E+00  1.3137693177E-02  1.2983832045E-02  4.4823562176E-01
  1.1498327759E+04  1.2603217923E+00  9.8717906578E+00  1.3450904294E-02  1.3290945703E-02  4.5132294829E-01
  1.1595317726E+04  1.2723303943E+00  9.8381472735E+00  1.3768857343E-02  1.3602615694E-02  4.5439227359E-01
  1.1692307692E+04  1.2843937108E+00  9.8051061151E+00  1.4091583550E-02  1.3918870449E-02  4.5744359471E-01
  1.1789297659E+04  1.2964994235E+00  9.7725902788E+00  1.4419114085E-02  1.4239735584E-02  4.6047690460E-01
  1.1886287625E+04  1.3086650165E+00  9.7406720683E+00  1.4751480059E-02  1.4565240445E-02  4.6349220181E-01
  1.1983277592E+04  1.3208672383E+00  9.7092243878E+00  1.5088712529E-02  1.4895408891E-02  4.6648949014E-01
  1.2080267559E+04  1.3331373050E+00  9.6783833837E+00  1.5430842497E-02  1.5230272072E-02  4.6946877833E-01
  1.2177257525E+04  1.3454352682E+00  9.6479476572E+00  1.5777900909E-02  1.5569851114E-02  4.7243007988E-01
  1.2274247492E+04  1.3578119971E+00  9.6181408032E+00  1.6129918657E-02  1.5914180034E-02  4.7537341284E-01
  1.2371237458E+04  1.3702047646E+00  9.5886637855E+00  1.6486926579E-02  1.6263276070E-02  4.7829879830E-01
  1.2468227425E+04  1.3826903377E+00  9.5598505121E+00  1.6848955461E-02  1.6617177368E-02  4.8120624268E-01
  1.2565217391E+04  1.3951916106E+00  9.5313460889E+00  1.7220550727E-02  1.6980287913E-02  4.8409574436E-01
  1.2662207358E+04  1.4077734737E+00  9.5034236870E+00  1.7599628697E-02  1.7350584091E-02  4.8696730660E-01
  1.2759197324E+04  1.4203864748E+00  9.4758587297E+00  1.7984063013E-02  1.7725985615E-02  4.8982093741E-01
  1.2856187291E+04  1.4330625194E+00  9.4487760942E+00  1.8373887780E-02  1.8106526938E-02  4.9265664932E-01
  1.2953177258E+04  1.4457896571E+00  9.4221152328E+00  1.8769137059E-02  1.8492235108E-02  4.9547445925E-01
  1.3050167224E+04  1.4585585175E+00  9.3958277980E+00  1.9169844869E-02  1.8883137327E-02  4.9827438829E-01
  1.3147157191E+04  1.4714022059E+00  9.3700375984E+00  1.9576045184E-02  1.9279268527E-02  5.0105645851E-01
  1.3244147157E+04  1.4842633422E+00  9.3445069746E+00  1.9987771936E-02  1.9680646675E-02  5.0382067886E-01
  1.3341137124E+04  1.4972249592E+00  9.3195517910E+00  2.0405059016E-02  2.0087316335E-02  5.0656705728E-01
  1.3438127090E+04  1.5102056887E+00  9.2948472699E+00  2.0827940274E-02  2.0499290235E-02  5.0929560621E-01
  1.3535117057E+04  1.5232585386E+00  9.2705874715E+00  2.1256449515E-02  2.0916607313E-02  5.1200634240E-01
  1.3632107023E+04  1.5363612751E+00  9.2466798283E+00  2.1690620507E-02  2.1339291459E-02  5.1469928673E-01
  1.3729096990E+04  1.5495033440E+00  9.2230777507E+00  2.2130486976E-02  2.1767368551E-02  5.1737446403E-01
  1.3826086957E+04  1.5627304965E+00  9.1999392876E+00  2.2576082606E-02  2.2200876690E-02  5.2003190591E-01
  1.3923076923E+04  1.5759769128E+00  9.1770200165E+00  2.3027441043E-02  2.2639829394E-02  5.2267165162E-01
  1.4020066890E+04  1.5893135202E+00  9.1545634084E+00  2.3484595892E-02  2.3084270574E-02  5.2529371161E-01
  1.4117056856E+04  1.6026874142E+00  9.1323763440E+00  2.3947580721E-02  2.3534216025E-02  5.2789809641E-01
  1.4214046823E+04  1.6161102804E+00  9.1104928719E+00  2.4416429055E-02  2.3989696043E-02  5.3048482094E-01
  1.4311036789E+04  1.6296140592E+00  9.0890136427E+00  2.4891174385E-02  2.4450746130E-02  5.3305390437E-01
  1.4408026756E+04  1.6431383186E+00  9.0677296225E+00  2.5371850158E-02  2.4917378848E-02  5.3560536994E-01
  1.4505016722E+04  1.6567565368E+00  9.0468765427E+00  2.5858489789E-02  2.5389640178E-02  5.3813924480E-01
  1.4602006689E+04  1.6704137578E+00  9.0262677871E+00  2.6351126650E-02  2.5867543488E-02  5.4065555991E-01
  1.4698996656E+04  1.6841142912E+00  9.0059121604E+00  2.6849794079E-02  2.6351116895E-02  5.4315434985E-01
  1.4795986622E+04  1.6979068769E+00  8.9859571315E+00  2.7354525375E-02  2.6840400848E-02  5.4563565270E-01
  1.4892976589E+04  1.7117211968E+00  8.9661762680E+00  2.7865353800E-02  2.7335403077E-02  5.4809950992E-01
  1.4989966555E+04  1.7256168573E+00  8.9467480580E+00  2.8382312580E-02  2.7836167157E-02  5.5054596616E-01
  1.5086956522E+04  1.7395696265E+00  8.9275919748E+00  2.8912871691E-02  2.8349863229E-02  5.5297506921E-01
  1.5183946488E+04  1.7535447173E+00  8.9085992695E+00  2.9450724624E-02  2.8870405160E-02  5.5538686266E-01
  1.5280936455E+04  1.7676361695E+00  8.8900413140E+00  2.9995062531E-02  2.9397037648E-02  5.5778137282E-01
  1.5377926421E+04  1.7817527420E+00  8.8716451551E+00  3.0545921696E-02  2.9929762333E-02  5.6015862789E-01
  1.5474916388E+04  1.7959194272E+00  8.8534788301E+00  3.1103338374E-02  3.0468615725E-02  5.6251865991E-01
  1.5571906355E+04  1.8101797732E+00  8.8356593834E+00  3.1667348794E-02  3.1013640963E-02  5.6486150466E-01
  1.5668896321E+04  1.8244637522E+00  8.8179861138E+00  3.2237989155E-02  3.1564844257E-02  5.6718720149E-01
  1.5765886288E+04  1.8388241287E+00  8.8005993023E+00  3.2815295630E-02  3.2122271710E-02  5.6949579318E-01
  1.5862876254E+04  1.8532548852E+00  8.7834769902E+00  3.3399304361E-02  3.2685950317E-02  5.7178732581E-01
  1.5959866221E+04  1.8677098912E+00  8.7664920592E+00  3.3990051467E-02  3.3255892561E-02  5.7406184865E-01
  1.6056856187E+04  1.8822636718E+00  8.7498351642E+00  3.4587573035E-02  3.3832153171E-02  5.7631941402E-01
  1.6153846154E+04  1.8968684667E+00  8.7333771027E+00  3.5191905129E-02  3.4414743793E-02  5.7856007717E-01
  1.6250836120E+04  1.9114981379E+00  8.7170482421E+00  3.5803083783E-02  3.5003682729E-02  5.8078389615E-01
  1.6347826087E+04  1.9262447372E+00  8.7010748151E+00  3.6421145007E-02  3.5599032673E-02  5.8299093095E-01
  1.6444816054E+04  1.9410272155E+00  8.6852502655E+00  3.7046124781E-02  3.6200791359E-02  5.8518123140E-01
  1.6541806020E+04  1.9558361777E+00  8.6695496233E+00  3.7678059061E-02  3.6808982512E-02  5.8735484107E-01
  1.6638795987E+04  1.9707737328E+00  8.6542137896E+00  3.8316983777E-02  3.7423674617E-02  5.8951180681E-01
  1.6735785953E+04  1.9857375575E+00  8.6389939835E+00  3.8962934832E-02  3.8044854810E-02  5.9165217874E-01
  1.6832775920E+04  2.0007348638E+00  8.6239054897E+00  3.9615948103E-02  3.8672553022E-02  5.9377601011E-01
  1.6929765886E+04  2.0158567855E+00  8.6091541847E+00  4.0276059441E-02  3.9306835179E-02  5.9588335717E-01
  1.7026755853E+04  2.0310056363E+00  8.5945121650E+00  4.0943304674E-02  3.9947687720E-02  5.9797427905E-01
  1.7123745819E+04  2.0461897571E+00  8.5799966528E+00  4.1617719600E-02  4.0595140909E-02  6.0004883764E-01
  1.7220735786E+04  2.0614997304E+00  8.5658041412E+00  4.2299339997E-02  4.1249262255E-02  6.0210709747E-01
  1.7317725753E+04  2.0768373045E+00  8.5517146192E+00  4.2988201614E-02  4.1910035377E-02  6.0414912561E-01
  1.7414715719E+04  2.0922063721E+00  8.5377352526E+00  4.3684340176E-02  4.2577488328E-02  6.0617499155E-01
  1.7511705686E+04  2.1077080296E+00  8.5240773457E+00  4.4388656722E-02  4.3252516966E-02  6.0818476433E-01
  1.7608695652E+04  2.1232379707E+00  8.5105165438E+00  4.5106732986E-02  4.3940361129E-02  6.1017850266E-01
  1.7705685619E+04  2.1387960908E+00  8.4970516272E+00  4.5832385336E-02  4.4635138175E-02  6.1215626457E-01
  1.7802675585E+04  2.1544860348E+00  8.4838923264E+00  4.6565651546E-02  4.5336927467E-02  6.1411811102E-01
  1.7899665552E+04  2.1702112827E+00  8.4708376153E+00  4.7306569368E-02  4.6045709874E-02  6.1606410570E-01
  1.7996655518E+04  2.1859653985E+00  8.4578733765E+00  4.8055176537E-02  4.6761509465E-02  6.1799431495E-01
  1.8093645485E+04  2.2018361469E+00  8.4451717924E+00  4.8811510770E-02  4.7484399634E-02  6.1990880760E-01
  1.8190635452E+04  2.2177592056E+00  8.4326017185E+00  4.9575609761E-02  4.8214375240E-02  6.2180765490E-01
  1.8287625418E+04  2.2337118228E+00  8.4201170494E+00  5.0347511189E-02  4.8951451378E-02  6.2369093041E-01
  1.8384615385E+04  2.2497596952E+00  8.4078426854E+00  5.1127252709E-02  4.9695691253E-02  6.2555870983E-01
  1.8481605351E+04  2.2658830355E+00  8.3957370372E+00  5.1914871963E-02  5.0447112177E-02  6.2741107097E-01
  1.8578595318E+04  2.2820366267E+00  8.3837120456E+00  5.2710406569E-02  5.1205716026E-02  6.2924809069E-01
  1.8675585284E+04  2.2982577331E+00  8.3718361748E+00  5.3513894130E-02  5.1971550931E-02  6.3106983709E-01
  1.8772575251E+04  2.3145837977E+00  8.3601758935E+00  5.4325372228E-02  5.2744666437E-02  6.3287637833E-01
  1.8869565217E+04  2.3309408080E+00  8.3485918161E+00  5.5144878428E-02  5.3525046298E-02  6.3466778501E-01
  1.8966555184E+04  2.3473310476E+00  8.3370873582E+00  5.5972450277E-02  5.4312717970E-02  6.3644413009E-01
  1.9063545151E+04  2.3638622512E+00  8.3258544546E+00  5.6808125301E-02  5.5107774441E-02  6.3820548874E-01
  1.9160535117E+04  2.3804250976E+00  8.3146935758E+00  5.7651941012E-02  5.5910175730E-02  6.3995193825E-01
  1.9257525084E+04  2.3970194867E+00  8.3036038986E+00  5.8503934901E-02  5.6719947481E-02  6.4168355793E-01
  1.9354515050E+04  2.4137188868E+00  8.2927124627E+00  5.9364144441E-02  5.7537163153E-02  6.4340042897E-01
  1.9451505017E+04  2.4304899583E+00  8.2819580400E+00  6.0232607089E-02  5.8361828373E-02  6.4510263439E-01
  1.9548494983E+04  2.4472932728E+00  8.2712709513E+00  6.1109360283E-02  5.9193943188E-02  6.4679025811E-01
  1.9645484950E+04  2.4641539253E+00  8.2606929876E+00  6.1994441443E-02  6.0033549944E-02  6.4846337736E-01
  1.9742474916E+04  2.4811355829E+00  8.2503291841E+00  6.2887887973E-02  6.0880718654E-02  6.5012206656E-01
  1.9839464883E+04  2.4981501863E+00  8.2400290778E+00  6.3789737258E-02  6.1735415114E-02  6.5176640219E-01
  1.9936454849E+04  2.5151976380E+00  8.2297919687E+00  6.4700026667E-02  6.2597664111E-02  6.5339646273E-01
  2.0033444816E+04  2.5323619561E+00  8.2197540334E+00  6.5620644885E-02  6.3469283218E-02  6.5501232858E-01
  2.0130434783E+04  2.5495902714E+00  8.2098261451E+00  6.6553380104E-02  6.4351894663E-02  6.5661408195E-01
  2.0227424749E+04  2.5668521422E+00  8.1999578800E+00  6.7494794330E-02  6.5242247807E-02  6.5820180674E-01
  2.0324414716E+04  2.5841689859E+00  8.1901824817E+00  6.8444926125E-02  6.6140384152E-02  6.5977558846E-01
  2.0421404682E+04  2.6016139005E+00  8.1806128994E+00  6.9403814034E-02  6.7046385777E-02  6.6133551415E-01
  2.0518394649E+04  2.6190930860E+00  8.1710997616E+00  7.0371496589E-02  6.7960207703E-02  6.6288167081E-01
  2.0615384615E+04  2.6366064472E+00  8.1616424710E+00  7.1348012309E-02  6.8881874758E-02  6.6441413875E-01
  2.0712374582E+04  2.6542215805E+00  8.1523427411E+00  7.2333399696E-02  6.9811465955E-02  6.6593299724E-01
  2.0809364548E+04  2.6719211365E+00  8.1431717427E+00  7.3327697240E-02  7.0748994153E-02  6.6743832728E-01
  2.0906354515E+04  2.6896555938E+00  8.1340536351E+00  7.4330943417E-02  7.1694444711E-02  6.6893021160E-01
  2.1003344482E+04  2.7074248591E+00  8.1249878700E+00  7.5343176688E-02  7.2647841938E-02  6.7040873448E-01
  2.1100334448E+04  2.7253366403E+00  8.1161303114E+00  7.6364435500E-02  7.3609301501E-02  6.7187398170E-01
  2.1197324415E+04  2.7432952519E+00  8.1073392191E+00  7.7394758289E-02  7.4578769017E-02  6.7332604043E-01
  2.1294314381E+04  2.7612894078E+00  8.0985977165E+00  7.8434183473E-02  7.5556259053E-02  6.7476499912E-01
  2.1391304348E+04  2.7793395696E+00  8.0899341588E+00  7.9482749460E-02  7.6541813563E-02  6.7619094989E-01
  2.1488294314E+04  2.7975253848E+00  8.0814585143E+00  8.0540494642E-02  7.7535528426E-02  6.7760399343E-01
  2.1585284281E+04  2.8157474907E+00  8.0730298596E+00  8.1607457399E-02  7.8537340646E-02  6.7900420845E-01
  2.1682274247E+04  2.8340057961E+00  8.0646477246E+00  8.2683676097E-02  7.9547273629E-02  6.8039167171E-01
  2.1779264214E+04  2.8523455707E+00  8.0563728394E+00  8.3769189089E-02  8.0565392939E-02  6.8176646173E-01
  2.1876254181E+04  2.8707986763E+00  8.0482461704E+00  8.4864034713E-02  8.1591753614E-02  6.8312865867E-01
  2.1973244147E+04  2.8892887387E+00  8.0401635952E+00  8.5968251296E-02  8.2626308492E-02  6.8447834424E-01
  2.2070234114E+04  2.9078156683E+00  8.0321246816E+00  8.7081877151E-02  8.3669080448E-02  6.8581560161E-01
  2.2167224080E+04  2.9264421364E+00  8.0242103891E+00  8.8204950576E-02  8.4720153875E-02  6.8714051529E-01
  2.2264214047E+04  2.9451670050E+00  8.0164171610E+00  8.9337509860E-02  8.5779552754E-02  6.8845317106E-01
  2.2361204013E+04  2.9639295093E+00  8.0086653287E+00  9.0479663800E-02  8.6847305719E-02  6.8975365588E-01
  2.2458193980E+04  2.9827295611E+00  8.0009544940E+00  9.1645025911E-02  8.7935933696E-02  6.9104205779E-01
  2.2555183946E+04  3.0016393486E+00  7.9933743970E+00  9.2820278512E-02  8.9033219632E-02  6.9231846583E-01
  2.2652173913E+04  3.0206404749E+00  7.9859000322E+00  9.4005462473E-02  9.0139171104E-02  6.9358296998E-01
  2.2749163880E+04  3.0396799285E+00  7.9784645465E+00  9.5200618655E-02  9.1253757801E-02  6.9483566104E-01
  2.2846153846E+04  3.0587576229E+00  7.9710675731E+00  9.6405787912E-02  9.2377003277E-02  6.9607663059E-01
  2.2943143813E+04  3.0779468876E+00  7.9637968326E+00  9.7621011091E-02  9.3509010828E-02  6.9730597090E-01
  2.3040133779E+04  3.0972287878E+00  7.9566276353E+00  9.8846329031E-02  9.4649786010E-02  6.9852377487E-01
  2.3137123746E+04  3.1165497200E+00  7.9494949674E+00  1.0008178256E-01  9.5799294474E-02  6.9973013357E-01
  2.3234113712E+04  3.1359095990E+00  7.9423984910E+00  1.0132741251E-01  9.6957559206E-02  7.0092512685E-01
  2.3331103679E+04  3.1553740172E+00  7.9354137129E+00  1.0258325969E-01  9.8124678140E-02  7.0210883231E-01
  2.3428093645E+04  3.1749412279E+00  7.9285368016E+00  1.0384936492E-01  9.9300674859E-02  7.0328132888E-01
  2.3525083612E+04  3.1945481883E+00  7.9216942240E+00  1.0512576899E-01  1.0048550085E-01  7.0444269668E-01
  2.3622073579E+04  3.2141948147E+00  7.9148856683E+00  1.0641251270E-01  1.0167917851E-01  7.0559301700E-01
  2.3719063545E+04  3.2339295678E+00  7.9081648002E+00  1.0770963684E-01  1.0288178837E-01  7.0673237217E-01
  2.3816053512E+04  3.2537866450E+00  7.9015680463E+00  1.0901718219E-01  1.0409339632E-01  7.0786084548E-01
  2.3913043478E+04  3.2736842029E+00  7.8950035723E+00  1.1033518952E-01  1.0531392742E-01  7.0897852111E-01
  2.4010033445E+04  3.2936221593E+00  7.8884710901E+00  1.1166369959E-01  1.0654340352E-01  7.1008548406E-01
  2.4107023411E+04  3.3136219194E+00  7.8819933274E+00  1.1300275317E-01  1.0778187331E-01  7.1118182003E-01
  2.4204013378E+04  3.3337734376E+00  7.8756652991E+00  1.1435239102E-01  1.0902947393E-01  7.1226761542E-01
  2.4301003344E+04  3.3539661809E+00  7.8693676278E+00  1.1571265386E-01  1.1028608950E-01  7.1334295719E-01
  2.4397993311E+04  3.3742000686E+00  7.8631000475E+00  1.1708358245E-01  1.1155174125E-01  7.1440793284E-01
  2.4494983278E+04  3.3944750203E+00  7.8568622956E+00  1.1846521750E-01  1.1282645027E-01  7.1546263032E-01
  2.4591973244E+04  3.4149095357E+00  7.8507756586E+00  1.1985759975E-01  1.1411039556E-01  7.1650713798E-01
  2.4688963211E+04  3.4354020697E+00  7.8447341251E+00  1.2126076992E-01  1.1540346656E-01  7.1754154420E-01
  2.4785953177E+04  3.4559365073E+00  7.8387209011E+00  1.2267476871E-01  1.1670566282E-01  7.1856593073E-01
  2.4882943144E+04  3.4765127697E+00  7.8327357440E+00  1.2409963682E-01  1.1801700482E-01  7.1958037312E-01
  2.4979933110E+04  3.4972019172E+00  7.8268491851E+00  1.2553541495E-01  1.1933761216E-01  7.2058494758E-01
  2.5076923077E+04  3.5179979713E+00  7.8210537476E+00  1.2698350232E-01  1.2066872686E-01  7.2157973127E-01
  2.5173913043E+04  3.5388366949E+00  7.8152849484E+00  1.2844296477E-01  1.2200939804E-01  7.2256480210E-01
  2.5270903010E+04  3.5597180106E+00  7.8095425631E+00  1.2991349220E-01  1.2335932853E-01  7.2354023878E-01
  2.5367892977E+04  3.5806541147E+00  7.8038387828E+00  1.3139512555E-01  1.2471855627E-01  7.2450612066E-01
  2.5464882943E+04  3.6017514386E+00  7.7982801591E+00  1.3288790576E-01  1.2608726009E-01  7.2546252767E-01
  2.5561872910E+04  3.6228921574E+00  7.7927466035E+00  1.3439187375E-01  1.2746528827E-01  7.2640954032E-01
  2.5658862876E+04  3.6440761951E+00  7.7872379086E+00  1.3590707044E-01  1.2885266029E-01  7.2734723956E-01
  2.5755852843E+04  3.6653034762E+00  7.7817538693E+00  1.3743353675E-01  1.3024939541E-01  7.2827570674E-01
  2.5852842809E+04  3.6866463399E+00  7.7763699613E+00  1.3897131359E-01  1.3165562676E-01  7.2919502358E-01
  2.5949832776E+04  3.7080840271E+00  7.7710630427E+00  1.4052044185E-01  1.3307134414E-01  7.3010527207E-01
  2.6046822742E+04  3.7295656998E+00  7.7657795237E+00  1.4208096244E-01  1.3449648730E-01  7.3100653445E-01
  2.6143812709E+04  3.7510912840E+00  7.7605192145E+00  1.4365291624E-01  1.3593107491E-01  7.3189889313E-01
  2.6240802676E+04  3.7726609502E+00  7.7552821947E+00  1.4523634413E-01  1.3737512585E-01  7.3278242823E-01
  2.6337792642E+04  3.7943901981E+00  7.7501937582E+00  1.4683128700E-01  1.3882885341E-01  7.3365721232E-01
  2.6434782609E+04  3.8161640370E+00  7.7451273459E+00  1.4843778572E-01  1.4029208612E-01  7.3452331709E-01
  2.6531772575E+04  3.8379823944E+00  7.7400827823E+00  1.5005588115E-01  1.4176484200E-01  7.3538081489E-01
  2.6628762542E+04  3.8598451981E+00  7.7350598937E+00  1.5168561415E-01  1.4324713891E-01  7.3622977864E-01
  2.6725752508E+04  3.8817889522E+00  7.7301002824E+00  1.5332702558E-01  1.4473906000E-01  7.3707028179E-01
  2.6822742475E+04  3.9038491199E+00  7.7252433231E+00  1.5498015629E-01  1.4624068921E-01  7.3790239824E-01
  2.6919732441E+04  3.9259543517E+00  7.7204069299E+00  1.5664504711E-01  1.4775191765E-01  7.3872620228E-01
  2.7016722408E+04  3.9481045766E+00  7.7155909421E+00  1.5832173889E-01  1.4927276254E-01  7.3954176855E-01
  2.7113712375E+04  3.9702997244E+00  7.7107952009E+00  1.6001027245E-01  1.5080324091E-01  7.4034917196E-01
  2.7210702341E+04  3.9925993945E+00  7.7060912827E+00  1.6171068862E-01  1.5234348450E-01  7.4114848768E-01
  2.7307692308E+04  4.0149852396E+00  7.7014558675E+00  1.6342302821E-01  1.5389347809E-01  7.4193979103E-01
  2.7404682274E+04  4.0374165630E+00  7.6968396605E+00  1.6515107366E-01  1.5545647606E-01  7.4272315747E-01
  2.7501672241E+04  4.0598932954E+00  7.6922425145E+00  1.6690711637E-01  1.5704333201E-01  7.4349866258E-01
  2.7598662207E+04  4.0824153683E+00  7.6876642840E+00  1.6867555014E-01  1.5864018575E-01  7.4426638174E-01
  2.7695652174E+04  4.1050538119E+00  7.6831955404E+00  1.7045641840E-01  1.6024720249E-01  7.4502638584E-01
  2.7792642140E+04  4.1277595562E+00  7.6787723469E+00  1.7224976456E-01  1.6186430127E-01  7.4577874129E-01
  2.7889632107E+04  4.1505111334E+00  7.6743670957E+00  1.7405563206E-01  1.6349145517E-01  7.4652351481E-01
  2.7986622074E+04  4.1733084763E+00  7.6699796519E+00  1.7587406433E-01  1.6512868112E-01  7.4726077351E-01
  2.8083612040E+04  4.1961515178E+00  7.6656098821E+00  1.7770510477E-01  1.6677599583E-01  7.4799058487E-01
  2.8180602007E+04  4.2191127664E+00  7.6613569031E+00  1.7954879683E-01  1.6843357947E-01  7.4871301671E-01
  2.8277591973E+04  4.2421321025E+00  7.6571371722E+00  1.8140518391E-01  1.7010131674E-01  7.4942813708E-01
  2.8374581940E+04  4.2651975666E+00  7.6529342021E+00  1.8327430944E-01  1.7177919732E-01  7.5013601425E-01
  2.8471571906E+04  4.2883090932E+00  7.6487478693E+00  1.8515621684E-01  1.7346723725E-01  7.5083671666E-01
  2.8568561873E+04  4.3114666166E+00  7.6445780517E+00  1.8705094953E-01  1.7516545233E-01  7.5153031286E-01
  2.8665551839E+04  4.3347360240E+00  7.6405224560E+00  1.8895855092E-01  1.7687402042E-01  7.5221687151E-01
  2.8762541806E+04  4.3580621237E+00  7.6364979484E+00  1.9087906444E-01  1.7859282506E-01  7.5289646126E-01
  2.8859531773E+04  4.3814345865E+00  7.6324890981E+00  1.9281253350E-01  1.8032185657E-01  7.5356915079E-01
  2.8956521739E+04  4.4048533483E+00  7.6284957919E+00  1.9475900151E-01  1.8206113006E-01  7.5423500842E-01
  2.9053511706E+04  4.4283183452E+00  7.6245179178E+00  1.9671851189E-01  1.8381066042E-01  7.5489409804E-01
  2.9150501672E+04  4.4518827390E+00  7.6206422804E+00  1.9869110805E-01  1.8557060640E-01  7.5554648052E-01
  2.9247491639E+04  4.4755082625E+00  7.6168052373E+00  2.0067683340E-01  1.8734088258E-01  7.5619221698E-01
  2.9344481605E+04  4.4991803238E+00  7.6129828200E+00  2.0267573137E-01  1.8912146446E-01  7.5683136881E-01
  2.9441471572E+04  4.5228988602E+00  7.6091749245E+00  2.0468784535E-01  1.9091236621E-01  7.5746399760E-01
  2.9538461538E+04  4.5466638094E+00  7.6053814482E+00  2.0671321875E-01  1.9271360181E-01  7.5809016516E-01
  2.9635451505E+04  4.5705116442E+00  7.6016692333E+00  2.0875189499E-01  1.9452529507E-01  7.5870993340E-01
  2.9732441472E+04  4.5944287478E+00  7.5980123414E+00  2.1080391748E-01  1.9634742180E-01  7.5932336435E-01
  2.9829431438E+04  4.6183925033E+00  7.5943691098E+00  2.1286932961E-01  1.9817992822E-01  7.5993052008E-01
  2.9926421405E+04  4.6424028495E+00  7.5907394434E+00  2.1494817481E-01  2.0002282759E-01  7.6053146270E-01
  3.0023411371E+04  4.6664597255E+00  7.5871232479E+00  2.1704226087E-01  2.0187765943E-01  7.6112625428E-01
  3.0120401338E+04  4.6905809534E+00  7.5835587711E+00  2.1915548550E-01  2.0374782511E-01  7.6171495685E-01
  3.0217391304E+04  4.7147805036E+00  7.5800751920E+00  2.2128239233E-01  2.0562862506E-01  7.6229763200E-01
  3.0314381271E+04  4.7390267536E+00  7.5766043689E+00  2.2342302560E-01  2.0751996492E-01  7.6287433513E-01
  3.0411371237E+04  4.7633196435E+00  7.5731462145E+00  2.2557742955E-01  2.0942185737E-01  7.6344512276E-01
  3.0508361204E+04  4.7876591139E+00  7.5697006424E+00  2.2774564843E-01  2.1133431486E-01  7.6401005291E-01
  3.0605351171E+04  4.8120456210E+00  7.5662689897E+00  2.2992772648E-01  2.1325735181E-01  7.6456918318E-01
  3.0702341137E+04  4.8365159885E+00  7.5629524154E+00  2.3212370794E-01  2.1519113533E-01  7.6512253085E-01
  3.0799331104E+04  4.8610330237E+00  7.5596477488E+00  2.3433363707E-01  2.1713552461E-01  7.6567187658E-01
  3.0896321070E+04  4.8855966681E+00  7.5563549096E+00  2.3655755811E-01  2.1909053136E-01  7.6622099449E-01
  3.0993311037E+04  4.9102068635E+00  7.5530738188E+00  2.3879551531E-01  2.2105616708E-01  7.6677011341E-01
  3.1090301003E+04  4.9348635522E+00  7.5498043977E+00  2.4104755292E-01  2.2303244303E-01  7.6731921640E-01
  3.1187290970E+04  4.9595813582E+00  7.5466052757E+00  2.4331371517E-01  2.2501945270E-01  7.6786829407E-01
