#[MATERIAL DEFINITION FOR MC-GPU: interaction mean free path and sampling data from PENELOPE 2006]
#[MATERIAL NAME]
# MATERIAL19                                                    
#[NOMINAL DENSITY (g/cm^3)]
#   1.00000000
#[NUMBER OF DATA VALUES]
#   1495
#[MEAN FREE PATHS (cm) (ie, average distance between interactions)]
#[Energy (eV)     | Rayleigh        | Compton         | Photoelectric   | TOTAL (+pair prod) (cm) | Rayleigh: max cumul prob F^2]
  5.0000000000E+03  1.2818631409E+00  9.3042739475E+00  6.3100965185E-03  6.2749518248E-03  2.6092768177E-01
  5.0969899666E+03  1.3056433212E+00  9.2160398751E+00  6.6473448953E-03  6.6089303487E-03  2.6582042483E-01
  5.1939799331E+03  1.3295829203E+00  9.1314259416E+00  6.9956865973E-03  6.9537715169E-03  2.7066819232E-01
  5.2909698997E+03  1.3536793975E+00  9.0502227789E+00  7.3552663069E-03  7.3096086419E-03  2.7547236647E-01
  5.3879598662E+03  1.3779301362E+00  8.9722359681E+00  7.7262277895E-03  7.6765737746E-03  2.8023424707E-01
  5.4849498328E+03  1.4023324544E+00  8.8972847350E+00  8.1088036322E-03  8.0548862493E-03  2.8495505333E-01
  5.5819397993E+03  1.4268836141E+00  8.8252007791E+00  8.5041278067E-03  8.4456539032E-03  2.8963600131E-01
  5.6789297659E+03  1.4515808316E+00  8.7558272225E+00  8.9113431477E-03  8.8480194445E-03  2.9427828962E-01
  5.7759197324E+03  1.4764212864E+00  8.6890176630E+00  9.3305920621E-03  9.2621119619E-03  2.9888299957E-01
  5.8729096990E+03  1.5014021305E+00  8.6246353209E+00  9.7620161338E-03  9.6880593405E-03  3.0345116333E-01
  5.9698996656E+03  1.5265205012E+00  8.5625522614E+00  1.0205756141E-02  1.0125988273E-02  3.0798381242E-01
  6.0668896321E+03  1.5517737400E+00  8.5026483515E+00  1.0662918106E-02  1.0576974803E-02  3.1248191455E-01
  6.1638795987E+03  1.5771597682E+00  8.4448100760E+00  1.1133189074E-02  1.1040697196E-02  3.1694633788E-01
  6.2608695652E+03  1.6026770447E+00  8.3889301454E+00  1.1618093985E-02  1.1518640759E-02  3.2137794417E-01
  6.3578595318E+03  1.6283240272E+00  8.3349078980E+00  1.2121448512E-02  1.2014538051E-02  3.2577761137E-01
  6.4548494983E+03  1.6541075070E+00  8.2826928469E+00  1.2638430884E-02  1.2523632769E-02  3.3014607023E-01
  6.5518394649E+03  1.6800280848E+00  8.2322048001E+00  1.3171613845E-02  1.3048434978E-02  3.3448396215E-01
  6.6488294314E+03  1.7060756077E+00  8.1833144527E+00  1.3719812294E-02  1.3587762385E-02  3.3879193501E-01
  6.7458193980E+03  1.7322483222E+00  8.1359427981E+00  1.4282334365E-02  1.4140919081E-02  3.4307064212E-01
  6.8428093645E+03  1.7585444389E+00  8.0900154963E+00  1.4859338265E-02  1.4708043326E-02  3.4732074131E-01
  6.9397993311E+03  1.7849621382E+00  8.0454625504E+00  1.5450981612E-02  1.5289272258E-02  3.5154285965E-01
  7.0367892977E+03  1.8115005407E+00  8.0022224484E+00  1.6058511909E-02  1.5885809122E-02  3.5573746116E-01
  7.1337792642E+03  1.8381871986E+00  7.9603625417E+00  1.6682899631E-02  1.6498585990E-02  3.5990497420E-01
  7.2307692308E+03  1.8649929644E+00  7.9196916433E+00  1.7322573527E-02  1.7126042648E-02  3.6404583546E-01
  7.3277591973E+03  1.8919164311E+00  7.8801533267E+00  1.7977693000E-02  1.7768315430E-02  3.6816048863E-01
  7.4247491639E+03  1.9189561123E+00  7.8416944175E+00  1.8648416914E-02  1.8425539535E-02  3.7224938316E-01
  7.5217391304E+03  1.9461282437E+00  7.8043346590E+00  1.9334903597E-02  1.9097851168E-02  3.7631291328E-01
  7.6187290970E+03  1.9734380885E+00  7.7680461452E+00  2.0037310856E-02  1.9785384412E-02  3.8035136906E-01
  7.7157190635E+03  2.0008620090E+00  7.7326948084E+00  2.0755795983E-02  2.0488268617E-02  3.8436503952E-01
  7.8127090301E+03  2.0283982440E+00  7.6982382018E+00  2.1490515758E-02  2.1206634512E-02  3.8835422175E-01
  7.9096989967E+03  2.0560738598E+00  7.6647371262E+00  2.2241626465E-02  2.1940615804E-02  3.9231922009E-01
  8.0066889632E+03  2.0838806641E+00  7.6321226742E+00  2.3010213309E-02  2.2691244347E-02  3.9626032423E-01
  8.1036789298E+03  2.1117971796E+00  7.6002878015E+00  2.3808463029E-02  2.3470335225E-02  4.0017773888E-01
  8.2006688963E+03  2.1398308264E+00  7.5692283823E+00  2.4624356297E-02  2.4266167354E-02  4.0407165492E-01
  8.2976588629E+03  2.1680201056E+00  7.5390324829E+00  2.5458065779E-02  2.5078888633E-02  4.0794227157E-01
  8.3946488294E+03  2.1963170731E+00  7.5095177567E+00  2.6309763737E-02  2.5908631803E-02  4.1178979558E-01
  8.4916387960E+03  2.2247216581E+00  7.4806613659E+00  2.7179622038E-02  2.6755535908E-02  4.1561442294E-01
  8.5886287625E+03  2.2532945504E+00  7.4526099239E+00  2.8067812155E-02  2.7619750308E-02  4.1941628775E-01
  8.6856187291E+03  2.2819725339E+00  7.4251547367E+00  2.8974505176E-02  2.8501400725E-02  4.2319551695E-01
  8.7826086957E+03  2.3107612830E+00  7.3982925866E+00  2.9899871808E-02  2.9400623962E-02  4.2695224555E-01
  8.8795986622E+03  2.3397175125E+00  7.3721472896E+00  3.0844082379E-02  3.0317566597E-02  4.3068661740E-01
  8.9765886288E+03  2.3687755160E+00  7.3465247399E+00  3.1807306849E-02  3.1252349073E-02  4.3439879045E-01
  9.0735785953E+03  2.3979614126E+00  7.3214729724E+00  3.2794830177E-02  3.2210044073E-02  4.3808883679E-01
  9.1705685619E+03  2.4272994576E+00  7.2970259166E+00  3.3803632497E-02  3.3187703281E-02  4.4175681057E-01
  9.2675585284E+03  2.4567354727E+00  7.2730378733E+00  3.4832302519E-02  3.4183918202E-02  4.4540277458E-01
  9.3645484950E+03  2.4863326934E+00  7.2496338289E+00  3.5881015811E-02  3.5198839192E-02  4.4902679974E-01
  9.4615384615E+03  2.5160508231E+00  7.2267031626E+00  3.6949947613E-02  3.6232590639E-02  4.5262896449E-01
  9.5585284281E+03  2.5458831606E+00  7.2042183355E+00  3.8039272839E-02  3.7285303491E-02  4.5620935435E-01
  9.6555183946E+03  2.5758860845E+00  7.1822753628E+00  3.9149166084E-02  3.8357124734E-02  4.5976806139E-01
  9.7525083612E+03  2.6059809018E+00  7.1607017113E+00  4.0279801624E-02  3.9448163527E-02  4.6330517780E-01
  9.8494983278E+03  2.6362486387E+00  7.1396392703E+00  4.1431353424E-02  4.0558572281E-02  4.6682073589E-01
  9.9464882943E+03  2.6666288915E+00  7.1189572530E+00  4.2603995137E-02  4.1688461977E-02  4.7031474618E-01
  1.0043478261E+04  2.6971455891E+00  7.0986881317E+00  4.3803271747E-02  4.2843105551E-02  4.7378722861E-01
  1.0140468227E+04  2.7278132814E+00  7.0788415896E+00  4.5030997423E-02  4.4024188664E-02  4.7723821077E-01
  1.0237458194E+04  2.7585841764E+00  7.0593252312E+00  4.6280895354E-02  4.5225643565E-02  4.8066772746E-01
  1.0334448161E+04  2.7895414662E+00  7.0402645188E+00  4.7553148714E-02  4.6447630281E-02  4.8407582030E-01
  1.0431438127E+04  2.8205798292E+00  7.0214768349E+00  4.8847940422E-02  4.7690243717E-02  4.8746253732E-01
  1.0528428094E+04  2.8518209964E+00  7.0031444273E+00  5.0165453139E-02  4.8953656795E-02  4.9082792941E-01
  1.0625418060E+04  2.8831482288E+00  6.9850742682E+00  5.1505869273E-02  5.0237955806E-02  4.9417201247E-01
  1.0722408027E+04  2.9146591188E+00  6.9674051248E+00  5.2869370982E-02  5.1543304668E-02  4.9749478620E-01
  1.0819397993E+04  2.9462765341E+00  6.9500115838E+00  5.4256140174E-02  5.2869799848E-02  5.0079625802E-01
  1.0916387960E+04  2.9780627447E+00  6.9329752903E+00  5.5666358513E-02  5.4217591074E-02  5.0407644237E-01
  1.1013377926E+04  3.0099712921E+00  6.9162200344E+00  5.7100207418E-02  5.5586783080E-02  5.0733536037E-01
  1.1110367893E+04  3.0420384390E+00  6.8997880833E+00  5.8557868068E-02  5.6977513696E-02  5.1057303945E-01
  1.1207357860E+04  3.0742386933E+00  6.8836351537E+00  6.0043204583E-02  5.8393376679E-02  5.1378951304E-01
  1.1304347826E+04  3.1065924094E+00  6.8677807939E+00  6.1562588901E-02  5.9840340296E-02  5.1698480718E-01
  1.1401337793E+04  3.1390845604E+00  6.8521964245E+00  6.3106889846E-02  6.1309698529E-02  5.2015892282E-01
  1.1498327759E+04  3.1717304951E+00  6.8368945241E+00  6.4676297556E-02  6.2801583626E-02  5.2331186429E-01
  1.1595317726E+04  3.2045143375E+00  6.8218469777E+00  6.6271001969E-02  6.4316111301E-02  5.2644364257E-01
  1.1692307692E+04  3.2374581551E+00  6.8070739003E+00  6.7891192833E-02  6.5853415060E-02  5.2955427494E-01
  1.1789297659E+04  3.2705330773E+00  6.7925333185E+00  6.9537059699E-02  6.7413600783E-02  5.3264378476E-01
  1.1886287625E+04  3.3037804563E+00  6.7782668104E+00  7.1208791929E-02  6.8996810271E-02  5.3571220118E-01
  1.1983277592E+04  3.3371454301E+00  6.7642050777E+00  7.2906578694E-02  7.0603131687E-02  5.3875954912E-01
  1.2080267559E+04  3.3707020615E+00  6.7504241656E+00  7.4630608978E-02  7.2232723768E-02  5.4178583627E-01
  1.2177257525E+04  3.4043556304E+00  6.7368147856E+00  7.6381071578E-02  7.3885647383E-02  5.4479107412E-01
  1.2274247492E+04  3.4382272168E+00  6.7234996827E+00  7.8158155108E-02  7.5562088628E-02  5.4777528035E-01
  1.2371237458E+04  3.4721674853E+00  6.7103176645E+00  7.9962047994E-02  7.7262069620E-02  5.5073847853E-01
  1.2468227425E+04  3.5063597503E+00  6.6974497042E+00  8.1792938487E-02  7.8985816227E-02  5.5368069788E-01
  1.2565217391E+04  3.5406198598E+00  6.6847058466E+00  8.3664284779E-02  8.0745682219E-02  5.5660197597E-01
  1.2662207358E+04  3.5751034265E+00  6.6722336176E+00  8.5570094006E-02  8.2536083823E-02  5.5950236781E-01
  1.2759197324E+04  3.6096918517E+00  6.6599136923E+00  8.7504221984E-02  8.4351141865E-02  5.6238189223E-01
  1.2856187291E+04  3.6444622513E+00  6.6478141287E+00  8.9466868323E-02  8.6191023005E-02  5.6524056579E-01
  1.2953177258E+04  3.6793858525E+00  6.6359034870E+00  9.1458232496E-02  8.8055820573E-02  5.6807841099E-01
  1.3050167224E+04  3.7144402984E+00  6.6241567386E+00  9.3478513847E-02  8.9945628950E-02  5.7089545600E-01
  1.3147157191E+04  3.7497060129E+00  6.6126415629E+00  9.5527911581E-02  9.1860618636E-02  5.7369173445E-01
  1.3244147157E+04  3.7850436472E+00  6.6012308236E+00  9.7606624775E-02  9.3800791300E-02  5.7646728520E-01
  1.3341137124E+04  3.8206559248E+00  6.5900958365E+00  9.9714852373E-02  9.5766412738E-02  5.7922215210E-01
  1.3438127090E+04  3.8563442102E+00  6.5790622342E+00  1.0185279319E-01  9.7757431088E-02  5.8195638382E-01
  1.3535117057E+04  3.8922385925E+00  6.5682356934E+00  1.0402064591E-01  9.9774055593E-02  5.8467003363E-01
  1.3632107023E+04  3.9282845678E+00  6.5575670607E+00  1.0621860909E-01  1.0181634454E-01  5.8736315917E-01
  1.3729096990E+04  3.9644564126E+00  6.5470318940E+00  1.0844749220E-01  1.0388493630E-01  5.9003582233E-01
  1.3826086957E+04  4.0008671427E+00  6.5367166674E+00  1.1070795276E-01  1.0598044960E-01  5.9268808656E-01
  1.3923076923E+04  4.0373542436E+00  6.5264896320E+00  1.1299917008E-01  1.0810190010E-01  5.9531998841E-01
  1.4020066890E+04  4.0740937251E+00  6.5164836684E+00  1.1532134282E-01  1.1024954639E-01  5.9793155900E-01
  1.4117056856E+04  4.1109543628E+00  6.5065946857E+00  1.1767466951E-01  1.1242336233E-01  6.0052283493E-01
  1.4214046823E+04  4.1479654519E+00  6.4968418507E+00  1.2005934858E-01  1.1462346802E-01  6.0309385803E-01
  1.4311036789E+04  4.1852067764E+00  6.4872806742E+00  1.2247557831E-01  1.1685003602E-01  6.0564467517E-01
  1.4408026756E+04  4.2225275302E+00  6.4777980068E+00  1.2492355689E-01  1.1910300507E-01  6.0817533805E-01
  1.4505016722E+04  4.2601119626E+00  6.4685229698E+00  1.2740348235E-01  1.2138265384E-01  6.1068590300E-01
  1.4602006689E+04  4.2978223502E+00  6.4593544951E+00  1.2991555263E-01  1.2368892781E-01  6.1317643079E-01
  1.4698996656E+04  4.3356696992E+00  6.4502979503E+00  1.3245996556E-01  1.2602192236E-01  6.1564698646E-01
  1.4795986622E+04  4.3737769441E+00  6.4414345514E+00  1.3503691881E-01  1.2838185894E-01  6.1809763907E-01
  1.4892976589E+04  4.4119668565E+00  6.4326411241E+00  1.3764660998E-01  1.3076862278E-01  6.2052845828E-01
  1.4989966555E+04  4.4503901405E+00  6.4240159221E+00  1.4028923652E-01  1.3318246656E-01  6.2293949769E-01
  1.5086956522E+04  4.4889856347E+00  6.4155154610E+00  1.4299316487E-01  1.3564875157E-01  6.2533080921E-01
  1.5183946488E+04  4.5276653005E+00  6.4070806126E+00  1.4573462534E-01  1.3814579884E-01  6.2770244959E-01
  1.5280936455E+04  4.5666644254E+00  6.3988616773E+00  1.4851063004E-01  1.4067109919E-01  6.3005448019E-01
  1.5377926421E+04  4.6057548253E+00  6.3907085511E+00  1.5132138987E-01  1.4322445396E-01  6.3238696674E-01
  1.5474916388E+04  4.6449976803E+00  6.3826596243E+00  1.5416711564E-01  1.4580601842E-01  6.3469997918E-01
  1.5571906355E+04  4.6845000006E+00  6.3747807281E+00  1.5704801810E-01  1.4841601449E-01  6.3699359146E-01
  1.5668896321E+04  4.7240898522E+00  6.3669603893E+00  1.5996430793E-01  1.5105429092E-01  6.3926788139E-01
  1.5765886288E+04  4.7638943019E+00  6.3592780664E+00  1.6291619574E-01  1.5372109555E-01  6.4152293043E-01
  1.5862876254E+04  4.8038989597E+00  6.3517219344E+00  1.6590389207E-01  1.5641648568E-01  6.4375882345E-01
  1.5959866221E+04  4.8439926290E+00  6.3442207585E+00  1.6892760740E-01  1.5914037313E-01  6.4597564037E-01
  1.6056856187E+04  4.8843514900E+00  6.3368835028E+00  1.7198755212E-01  1.6189308629E-01  6.4817345042E-01
  1.6153846154E+04  4.9248627079E+00  6.3296371241E+00  1.7508393658E-01  1.6467452952E-01  6.5035232567E-01
  1.6250836120E+04  4.9654644042E+00  6.3224423358E+00  1.7821697105E-01  1.6748467148E-01  6.5251234224E-01
  1.6347826087E+04  5.0063701784E+00  6.3154296931E+00  1.8138686573E-01  1.7032391262E-01  6.5465358011E-01
  1.6444816054E+04  5.0473920241E+00  6.3084808582E+00  1.8459383076E-01  1.7319202179E-01  6.5677612292E-01
  1.6541806020E+04  5.0885080104E+00  6.3015818148E+00  1.8783807621E-01  1.7608901914E-01  6.5888005781E-01
  1.6638795987E+04  5.1299506917E+00  6.2948729804E+00  1.9111981208E-01  1.7901535440E-01  6.6096547523E-01
  1.6735785953E+04  5.1714870804E+00  6.2882102196E+00  1.9443924833E-01  1.8197069580E-01  6.6303246883E-01
  1.6832775920E+04  5.2131332008E+00  6.2816028301E+00  1.9779659482E-01  1.8495512079E-01  6.6508113453E-01
  1.6929765886E+04  5.2550927649E+00  6.2751720933E+00  2.0119206137E-01  1.8796904796E-01  6.6711155563E-01
  1.7026755853E+04  5.2971474609E+00  6.2687846200E+00  2.0462585772E-01  1.9101214095E-01  6.6912381635E-01
  1.7123745819E+04  5.3393154881E+00  6.2624509336E+00  2.0809819356E-01  1.9408447758E-01  6.7111800729E-01
  1.7220735786E+04  5.3817955622E+00  6.2562879658E+00  2.1160927852E-01  1.9718648472E-01  6.7309422222E-01
  1.7317725753E+04  5.4243721806E+00  6.2501656257E+00  2.1515932214E-01  2.0031780144E-01  6.7505255793E-01
  1.7414715719E+04  5.4670536319E+00  6.2440885024E+00  2.1874853393E-01  2.0347848221E-01  6.7699311409E-01
  1.7511705686E+04  5.5100576860E+00  6.2381835668E+00  2.2238050644E-01  2.0667193199E-01  6.7891599305E-01
  1.7608695652E+04  5.5531596845E+00  6.2323167840E+00  2.2607714790E-01  2.0991643307E-01  6.8082129972E-01
  1.7705685619E+04  5.5963593093E+00  6.2264876994E+00  2.2981436571E-01  2.1319098490E-01  6.8270914142E-01
  1.7802675585E+04  5.6398770945E+00  6.2208236800E+00  2.3359237841E-01  2.1649610066E-01  6.8458074987E-01
  1.7899665552E+04  5.6835076844E+00  6.2152033534E+00  2.3741140448E-01  2.1983138332E-01  6.8643775721E-01
  1.7996655518E+04  5.7272372924E+00  6.2096184353E+00  2.4127166240E-01  2.2319683336E-01  6.8828022474E-01
  1.8093645485E+04  5.7712510046E+00  6.2041746985E+00  2.4517337057E-01  2.2659290531E-01  6.9010820609E-01
  1.8190635452E+04  5.8154131887E+00  6.1987921958E+00  2.4911674740E-01  2.3001932935E-01  6.9192175728E-01
  1.8287625418E+04  5.8596757692E+00  6.1934429482E+00  2.5310201124E-01  2.3347602068E-01  6.9372093666E-01
  1.8384615385E+04  5.9041760340E+00  6.1882046005E+00  2.5712938041E-01  2.3696333658E-01  6.9550580480E-01
  1.8481605351E+04  5.9488726643E+00  6.1830517641E+00  2.6119907319E-01  2.4048121175E-01  6.9727642438E-01
  1.8578595318E+04  5.9936710554E+00  6.1779301558E+00  2.6531130784E-01  2.4402943738E-01  6.9903286012E-01
  1.8675585284E+04  6.0386483322E+00  6.1728829147E+00  2.6946630257E-01  2.4760822896E-01  7.0077517866E-01
  1.8772575251E+04  6.0838821119E+00  6.1679520290E+00  2.7366826060E-01  2.5122117295E-01  7.0250344848E-01
  1.8869565217E+04  6.1292190031E+00  6.1630504619E+00  2.7791556923E-01  2.5486633214E-01  7.0421773981E-01
  1.8966555184E+04  6.1746636042E+00  6.1581806145E+00  2.8220644523E-01  2.5854203864E-01  7.0591812456E-01
  1.9063545151E+04  6.2204370890E+00  6.1534643757E+00  2.8654110833E-01  2.6224891663E-01  7.0760467620E-01
  1.9160535117E+04  6.2663150224E+00  6.1487756556E+00  2.9091977819E-01  2.6598636960E-01  7.0927746972E-01
  1.9257525084E+04  6.3122971120E+00  6.1441141554E+00  2.9534267446E-01  2.6975440159E-01  7.1093658150E-01
  1.9354515050E+04  6.3585327309E+00  6.1395615081E+00  2.9981001677E-01  2.7355345409E-01  7.1258208928E-01
  1.9451505017E+04  6.4049541023E+00  6.1350788171E+00  3.0432202470E-01  2.7738334684E-01  7.1421407164E-01
  1.9548494983E+04  6.4514809575E+00  6.1306216709E+00  3.0887891781E-01  2.8124384685E-01  7.1583259826E-01
  1.9645484950E+04  6.4981637719E+00  6.1262173608E+00  3.1348091563E-01  2.8513510749E-01  7.1743773031E-01
  1.9742474916E+04  6.5451308328E+00  6.1219342326E+00  3.1812823766E-01  2.8905753532E-01  7.1902953056E-01
  1.9839464883E+04  6.5922046909E+00  6.1176750675E+00  3.2282110337E-01  2.9301058184E-01  7.2060806377E-01
  1.9936454849E+04  6.6393850653E+00  6.1134396152E+00  3.2755973221E-01  2.9699423711E-01  7.2217339657E-01
  2.0033444816E+04  6.6868398209E+00  6.1093172833E+00  3.3235501833E-01  3.0101780408E-01  7.2372559737E-01
  2.0130434783E+04  6.7344633172E+00  6.1052500056E+00  3.3721730108E-01  3.0508916602E-01  7.2526473630E-01
  2.0227424749E+04  6.7821946384E+00  6.1012049656E+00  3.4212677404E-01  3.0919164115E-01  7.2679088508E-01
  2.0324414716E+04  6.8300765372E+00  6.0972043112E+00  3.4708366483E-01  3.1332536302E-01  7.2830411700E-01
  2.0421404682E+04  6.8782552156E+00  6.0933228947E+00  3.5208820105E-01  3.1749083756E-01  7.2980450674E-01
  2.0518394649E+04  6.9265430463E+00  6.0894623224E+00  3.5714061031E-01  3.2168740339E-01  7.3129213037E-01
  2.0615384615E+04  6.9749397590E+00  6.0856223848E+00  3.6224112021E-01  3.2591503841E-01  7.3276706523E-01
  2.0712374582E+04  7.0235809891E+00  6.0818709491E+00  3.6738995833E-01  3.3017421926E-01  7.3422938989E-01
  2.0809364548E+04  7.0724319334E+00  6.0781891105E+00  3.7258735227E-01  3.3446481289E-01  7.3567918403E-01
  2.0906354515E+04  7.1213931198E+00  6.0745266060E+00  3.7783352961E-01  3.3878643103E-01  7.3711652837E-01
  2.1003344482E+04  7.1704642839E+00  6.0708832452E+00  3.8312871792E-01  3.4313904343E-01  7.3854150427E-01
  2.1100334448E+04  7.2198624042E+00  6.0673637144E+00  3.8847314477E-01  3.4752346499E-01  7.3995418749E-01
  2.1197324415E+04  7.2693947060E+00  6.0638732558E+00  3.9386703772E-01  3.5193893645E-01  7.4135465053E-01
  2.1294314381E+04  7.3190383778E+00  6.0604007260E+00  3.9931062433E-01  3.5638533496E-01  7.4274296722E-01
  2.1391304348E+04  7.3688347205E+00  6.0569654409E+00  4.0480413215E-01  3.6086279100E-01  7.4411921267E-01
  2.1488294314E+04  7.4189447838E+00  6.0536418957E+00  4.1034778873E-01  3.6537193612E-01  7.4548346321E-01
  2.1585284281E+04  7.4691676379E+00  6.0503351295E+00  4.1594182160E-01  3.6991192468E-01  7.4683579628E-01
  2.1682274247E+04  7.5195030282E+00  6.0470449825E+00  4.2158645830E-01  3.7448271249E-01  7.4817629035E-01
  2.1779264214E+04  7.5700427453E+00  6.0438129380E+00  4.2728192636E-01  3.7908464784E-01  7.4950502491E-01
  2.1876254181E+04  7.6208514573E+00  6.0406671029E+00  4.3302845329E-01  3.8371798106E-01  7.5082208032E-01
  2.1973244147E+04  7.6717741584E+00  6.0375368109E+00  4.3882626662E-01  3.8838200794E-01  7.5212753781E-01
  2.2070234114E+04  7.7228105994E+00  6.0344219170E+00  4.4467559386E-01  3.9307667638E-01  7.5342147938E-01
  2.2167224080E+04  7.7740883238E+00  6.0313780801E+00  4.5057666250E-01  3.9780250949E-01  7.5470398772E-01
  2.2264214047E+04  7.8256050368E+00  6.0284030880E+00  4.5652970006E-01  4.0255946518E-01  7.5597514621E-01
  2.2361204013E+04  7.8772369746E+00  6.0254424856E+00  4.6253518410E-01  4.0734712918E-01  7.5723503881E-01
  2.2458193980E+04  7.9289838936E+00  6.0224961414E+00  4.6864150030E-01  4.1220269781E-01  7.5848374961E-01
  2.2555183946E+04  7.9809932118E+00  6.0196261924E+00  4.7480153244E-01  4.1708999204E-01  7.5972135800E-01
  2.2652173913E+04  8.0332273696E+00  6.0168155831E+00  4.8101551825E-01  4.2200879694E-01  7.6094794095E-01
  2.2749163880E+04  8.0855780252E+00  6.0140182863E+00  4.8728369548E-01  4.2695854040E-01  7.6216357625E-01
  2.2846153846E+04  8.1380449401E+00  6.0112341824E+00  4.9360630189E-01  4.3193915534E-01  7.6336834244E-01
  2.2943143813E+04  8.1907783575E+00  6.0085244636E+00  4.9998357527E-01  4.3695132500E-01  7.6456231876E-01
  2.3040133779E+04  8.2437394909E+00  6.0058721534E+00  5.0641575342E-01  4.4199481230E-01  7.6574558510E-01
  2.3137123746E+04  8.2968184321E+00  6.0032321484E+00  5.1290307417E-01  4.4706900319E-01  7.6691822192E-01
  2.3234113712E+04  8.3500149478E+00  6.0006043403E+00  5.1944577534E-01  4.5217382276E-01  7.6808031021E-01
  2.3331103679E+04  8.4034638532E+00  5.9980418085E+00  5.2604409482E-01  4.5730990303E-01  7.6923193142E-01
  2.3428093645E+04  8.4571615758E+00  5.9955420621E+00  5.3269827046E-01  4.6247717427E-01  7.7037316745E-01
  2.3525083612E+04  8.5109784532E+00  5.9930536784E+00  5.3940854017E-01  4.6767488499E-01  7.7150410052E-01
  2.3622073579E+04  8.5649142569E+00  5.9905765593E+00  5.4617514186E-01  4.7290295258E-01  7.7262481320E-01
  2.3719063545E+04  8.6190688869E+00  5.9881487432E+00  5.5299831347E-01  4.7816184367E-01  7.7373538832E-01
  2.3816053512E+04  8.6735128911E+00  5.9857961485E+00  5.5987829294E-01  4.8345188663E-01  7.7483590865E-01
  2.3913043478E+04  8.7280774336E+00  5.9834540339E+00  5.6681531824E-01  4.8877207649E-01  7.7592645327E-01
  2.4010033445E+04  8.7827622906E+00  5.9811223104E+00  5.7380962737E-01  4.9412232316E-01  7.7700709895E-01
  2.4107023411E+04  8.8376116931E+00  5.9788172712E+00  5.8086145832E-01  4.9950279082E-01  7.7807792293E-01
  2.4204013378E+04  8.8928117455E+00  5.9766067160E+00  5.8797104912E-01  5.0491448209E-01  7.7913900282E-01
  2.4301003344E+04  8.9481337559E+00  5.9744058136E+00  5.9513863780E-01  5.1035599998E-01  7.8019041661E-01
  2.4397993311E+04  9.0035775056E+00  5.9722144837E+00  6.0236446243E-01  5.1582724709E-01  7.8123224258E-01
  2.4494983278E+04  9.0591427768E+00  5.9700326467E+00  6.0964876108E-01  5.2132812399E-01  7.8226455928E-01
  2.4591973244E+04  9.1150754402E+00  5.9679474296E+00  6.1699177184E-01  5.2686003110E-01  7.8328744547E-01
  2.4688963211E+04  9.1711647913E+00  5.9658829574E+00  6.2439373283E-01  5.3242161831E-01  7.8430098010E-01
  2.4785953177E+04  9.2273773424E+00  5.9638272895E+00  6.3185488216E-01  5.3801258042E-01  7.8530524223E-01
  2.4882943144E+04  9.2837128806E+00  5.9617803542E+00  6.3937545798E-01  5.4363281096E-01  7.8630031105E-01
  2.4979933110E+04  9.3403188556E+00  5.9597932041E+00  6.4695569846E-01  5.4928314646E-01  7.8728626576E-01
  2.5076923077E+04  9.3971828716E+00  5.9578606009E+00  6.5463433869E-01  5.5499109990E-01  7.8826318558E-01
  2.5173913043E+04  9.4541715630E+00  5.9559360811E+00  6.6238402619E-01  5.6073570179E-01  7.8923114755E-01
  2.5270903010E+04  9.5112847214E+00  5.9540195799E+00  6.7019506403E-01  5.6650967026E-01  7.9019022575E-01
  2.5367892977E+04  9.5685471413E+00  5.9521200254E+00  6.7806769895E-01  5.7231306191E-01  7.9114049427E-01
  2.5464882943E+04  9.6261756267E+00  5.9503147435E+00  6.8600217773E-01  5.7814727973E-01  7.9208202738E-01
  2.5561872910E+04  9.6839301346E+00  5.9485168689E+00  6.9399874719E-01  5.8401056802E-01  7.9301489946E-01
  2.5658862876E+04  9.7418104611E+00  5.9467263432E+00  7.0205765416E-01  5.8990280587E-01  7.9393918500E-01
  2.5755852843E+04  9.7998164029E+00  5.9449431088E+00  7.1017914553E-01  5.9582387051E-01  7.9485495852E-01
  2.5852842809E+04  9.8580908657E+00  5.9432220173E+00  7.1836346823E-01  6.0177473347E-01  7.9576229458E-01
  2.5949832776E+04  9.9165928195E+00  5.9415464263E+00  7.2661086920E-01  6.0775498881E-01  7.9666126772E-01
  2.6046822742E+04  9.9752217558E+00  5.9398775561E+00  7.3492159544E-01  6.1376374919E-01  7.9755195245E-01
  2.6143812709E+04  1.0033977476E+01  5.9382153548E+00  7.4329589398E-01  6.1980088523E-01  7.9843442317E-01
  2.6240802676E+04  1.0092860247E+01  5.9365599651E+00  7.5173401188E-01  6.2586626968E-01  7.9930875421E-01
  2.6337792642E+04  1.0152090131E+01  5.9350025165E+00  7.6023619623E-01  6.3196165703E-01  8.0017501882E-01
  2.6434782609E+04  1.0211447972E+01  5.9334511990E+00  7.6880269417E-01  6.3808507819E-01  8.0103328644E-01
  2.6531772575E+04  1.0270933576E+01  5.9319059662E+00  7.7743375287E-01  6.4423639745E-01  8.0188362770E-01
  2.6628762542E+04  1.0330546749E+01  5.9303667721E+00  7.8612961952E-01  6.5041547733E-01  8.0272611339E-01
  2.6725752508E+04  1.0390353991E+01  5.9288639593E+00  7.9489054137E-01  6.5662281769E-01  8.0356081424E-01
  2.6822742475E+04  1.0450419931E+01  5.9274262954E+00  8.0371676569E-01  6.6285892657E-01  8.0438780087E-01
  2.6919732441E+04  1.0510614424E+01  5.9259941673E+00  8.1260853978E-01  6.6912243043E-01  8.0520714360E-01
  2.7016722408E+04  1.0570937280E+01  5.9245675340E+00  8.2156611099E-01  6.7541318580E-01  8.0601891143E-01
  2.7113712375E+04  1.0631388310E+01  5.9231463547E+00  8.3058972668E-01  6.8173104751E-01  8.0682317310E-01
  2.7210702341E+04  1.0692070339E+01  5.9217828465E+00  8.3967963427E-01  6.8807700090E-01  8.0761991321E-01
  2.7307692308E+04  1.0752951651E+01  5.9204601472E+00  8.4883608119E-01  6.9445058408E-01  8.0840963084E-01
  2.7404682274E+04  1.0813961930E+01  5.9191424313E+00  8.5805940574E-01  7.0085094590E-01  8.0919484042E-01
  2.7501672241E+04  1.0875100990E+01  5.9178296625E+00  8.6735015278E-01  7.0727813267E-01  8.0997656326E-01
  2.7598662207E+04  1.0936368648E+01  5.9165218050E+00  8.7670819019E-01  7.1373173779E-01  8.1075481620E-01
  2.7695652174E+04  1.0997879212E+01  5.9152850008E+00  8.8613376561E-01  7.2021307930E-01  8.1152961772E-01
  2.7792642140E+04  1.1059553612E+01  5.9140727327E+00  8.9562712671E-01  7.2672102395E-01  8.1230098637E-01
  2.7889632107E+04  1.1121357210E+01  5.9128649348E+00  9.0518852120E-01  7.3325497718E-01  8.1306894058E-01
  2.7986622074E+04  1.1183289826E+01  5.9116615754E+00  9.1481819683E-01  7.3981478124E-01  8.1383349866E-01
  2.8083612040E+04  1.1245351280E+01  5.9104626227E+00  9.2451640137E-01  7.4640027690E-01  8.1459467883E-01
  2.8180602007E+04  1.1307648017E+01  5.9093405469E+00  9.3428338263E-01  7.5301295355E-01  8.1535249918E-01
  2.8277591973E+04  1.1370091650E+01  5.9082344412E+00  9.4411938845E-01  7.5965132216E-01  8.1610697770E-01
  2.8374581940E+04  1.1432664530E+01  5.9071323288E+00  9.5402466670E-01  7.6631495241E-01  8.1685813226E-01
  2.8471571906E+04  1.1495366482E+01  5.9060341818E+00  9.6399946530E-01  7.7300368011E-01  8.1760598063E-01
  2.8568561873E+04  1.1558197331E+01  5.9049399724E+00  9.7404403218E-01  7.7971733967E-01  8.1835054046E-01
  2.8665551839E+04  1.1621242239E+01  5.9039212315E+00  9.8415861531E-01  7.8645742477E-01  8.1909182932E-01
  2.8762541806E+04  1.1684429716E+01  5.9029172643E+00  9.9434346269E-01  7.9322241747E-01  8.1982986464E-01
  2.8859531773E+04  1.1747746307E+01  5.9019168467E+00  1.0045988224E+00  8.0001189320E-01  8.2056466377E-01
  2.8956521739E+04  1.1811191841E+01  5.9009199544E+00  1.0149249424E+00  8.0682568182E-01  8.2129624393E-01
  2.9053511706E+04  1.1874766147E+01  5.8999265631E+00  1.0253220709E+00  8.1366361187E-01  8.2202462226E-01
  2.9150501672E+04  1.1938526055E+01  5.8990003069E+00  1.0357904559E+00  8.2052701154E-01  8.2274981578E-01
  2.9247491639E+04  1.2002430490E+01  5.8980946809E+00  1.0463303458E+00  8.2741466607E-01  8.2347184140E-01
  2.9344481605E+04  1.2066463724E+01  5.8971921914E+00  1.0569419885E+00  8.3432599570E-01  8.2419071596E-01
  2.9441471572E+04  1.2130625591E+01  5.8962928173E+00  1.0676256324E+00  8.4126082478E-01  8.2490645615E-01
  2.9538461538E+04  1.2194915924E+01  5.8953965377E+00  1.0783815258E+00  8.4821897650E-01  8.2561907860E-01
  2.9635451505E+04  1.2259362989E+01  5.8945524238E+00  1.0892099169E+00  8.5520144459E-01  8.2632859982E-01
  2.9732441472E+04  1.2323956075E+01  5.8937415515E+00  1.1001110539E+00  8.6220764806E-01  8.2703503674E-01
  2.9829431438E+04  1.2388677466E+01  5.8929334311E+00  1.1110851854E+00  8.6923669169E-01  8.2773840669E-01
  2.9926421405E+04  1.2453526998E+01  5.8921280443E+00  1.1221325596E+00  8.7628839489E-01  8.2843872646E-01
  3.0023411371E+04  1.2518504508E+01  5.8913253730E+00  1.1332752418E+00  8.8337583193E-01  8.2913601273E-01
  3.0120401338E+04  1.2583620922E+01  5.8905535197E+00  1.1445611623E+00  8.9052823807E-01  8.2983028206E-01
  3.0217391304E+04  1.2648884778E+01  5.8898339706E+00  1.1559225805E+00  8.9770453321E-01  8.3052155088E-01
  3.0314381271E+04  1.2714276347E+01  5.8891168149E+00  1.1673597562E+00  9.0490331047E-01  8.3120983554E-01
  3.0411371237E+04  1.2779795470E+01  5.8884020369E+00  1.1788729489E+00  9.1212438117E-01  8.3189515225E-01
  3.0508361204E+04  1.2845441988E+01  5.8876896213E+00  1.1904624185E+00  9.1936755560E-01  8.3257751714E-01
  3.0605351171E+04  1.2911216345E+01  5.8869805935E+00  1.2021284246E+00  9.2663267193E-01  8.3325694619E-01
  3.0702341137E+04  1.2977161596E+01  5.8863490277E+00  1.2138712272E+00  9.3392162858E-01  8.3393345532E-01
  3.0799331104E+04  1.3043234079E+01  5.8857195213E+00  1.2256910862E+00  9.4123217251E-01  8.3460706030E-01
  3.0896321070E+04  1.3109433638E+01  5.8850920612E+00  1.2375882614E+00  9.4856411084E-01  8.3527777682E-01
  3.0993311037E+04  1.3175760118E+01  5.8844666343E+00  1.2495630130E+00  9.5591724975E-01  8.3594562046E-01
  3.1090301003E+04  1.3242213363E+01  5.8838432278E+00  1.2616156009E+00  9.6329139451E-01  8.3661060669E-01
  3.1187290970E+04  1.3308829211E+01  5.8832646595E+00  1.2737462853E+00  9.7068770693E-01  8.3727275088E-01
