#[MATERIAL DEFINITION FOR MC-GPU: interaction mean free path and sampling data from PENELOPE 2006]
#[MATERIAL NAME]
# MATERIAL3                                                     
#[NOMINAL DENSITY (g/cm^3)]
#   1.00000000
#[NUMBER OF DATA VALUES]
#   1495
#[MEAN FREE PATHS (cm) (ie, average distance between interactions)]
#[Energy (eV)     | Rayleigh        | Compton         | Photoelectric   | TOTAL (+pair prod) (cm) | Rayleigh: max cumul prob F^2]
  5.0000000000E+03  2.6133752696E+00  7.1115969260E+00  4.3570750170E-02  4.2599526480E-02  3.3793484037E-01
  5.0969899666E+03  2.6713295687E+00  7.0664201274E+00  4.6223512928E-02  4.5146989646E-02  3.4279604277E-01
  5.1939799331E+03  2.7297292804E+00  7.0230690379E+00  4.8983063196E-02  4.7792136277E-02  3.4759023499E-01
  5.2909698997E+03  2.7885617379E+00  6.9814316601E+00  5.1851577572E-02  5.0536543445E-02  3.5232151286E-01
  5.3879598662E+03  2.8478141796E+00  6.9414040730E+00  5.4831235208E-02  5.3381762719E-02  3.5699380274E-01
  5.4849498328E+03  2.9074737920E+00  6.9028897548E+00  5.7925091975E-02  5.6330146045E-02  3.6161090228E-01
  5.5819397993E+03  2.9675277511E+00  6.8657989753E+00  6.1145127813E-02  5.9392428025E-02  3.6617629715E-01
  5.6789297659E+03  3.0279632639E+00  6.8300482480E+00  6.4483928715E-02  6.2560970214E-02  3.7069330565E-01
  5.7759197324E+03  3.0887676094E+00  6.7955598363E+00  6.7943727963E-02  6.5837246318E-02  3.7516510710E-01
  5.8729096990E+03  3.1499281794E+00  6.7622613070E+00  7.1526761698E-02  6.9222700057E-02  3.7959475781E-01
  5.9698996656E+03  3.2114325299E+00  6.7300851287E+00  7.5235268874E-02  7.2718744294E-02  3.8398507792E-01
  6.0668896321E+03  3.2732690171E+00  6.6989684586E+00  7.9089838574E-02  7.6343856102E-02  3.8833857743E-01
  6.1638795987E+03  3.3354278897E+00  6.6688530563E+00  8.3084511269E-02  8.0091624094E-02  3.9265766904E-01
  6.2608695652E+03  3.3979012034E+00  6.6396849042E+00  8.7213698969E-02  8.3956024827E-02  3.9694469696E-01
  6.3578595318E+03  3.4606813135E+00  6.6114135211E+00  9.1479735436E-02  8.7938397876E-02  4.0120192773E-01
  6.4548494983E+03  3.5237687651E+00  6.5840133470E+00  9.5884957879E-02  9.2040057172E-02  4.0543132830E-01
  6.5518394649E+03  3.5871571461E+00  6.5574433051E+00  1.0043187746E-01  9.6262430955E-02  4.0963464626E-01
  6.6488294314E+03  3.6508305298E+00  6.5316388010E+00  1.0512274631E-01  1.0060665529E-01  4.1381359435E-01
  6.7458193980E+03  3.7147816684E+00  6.5065605640E+00  1.0995985280E-01  1.0507386888E-01  4.1796985888E-01
  6.8428093645E+03  3.7790035595E+00  6.4821718183E+00  1.1494554816E-01  1.0966522664E-01  4.2210498824E-01
  6.9397993311E+03  3.8434894733E+00  6.4584381268E+00  1.2008218684E-01  1.1438184400E-01  4.2622023651E-01
  7.0367892977E+03  3.9082336677E+00  6.4353292574E+00  1.2538616065E-01  1.1923748912E-01  4.3031680911E-01
  7.1337792642E+03  3.9732509669E+00  6.4128738732E+00  1.3087064083E-01  1.2424285460E-01  4.3439590546E-01
  7.2307692308E+03  4.0385170125E+00  6.3909845125E+00  1.3651594368E-01  1.2937886347E-01  4.3845866231E-01
  7.3277591973E+03  4.1040283829E+00  6.3696355553E+00  1.4232452724E-01  1.3464651898E-01  4.4250595986E-01
  7.4247491639E+03  4.1697817366E+00  6.3488028544E+00  1.4829885343E-01  1.4004678041E-01  4.4653861432E-01
  7.5217391304E+03  4.2357855822E+00  6.3284949518E+00  1.5444138805E-01  1.4558059284E-01  4.5055744676E-01
  7.6187290970E+03  4.3020403072E+00  6.3086985163E+00  1.6075460066E-01  1.5124884073E-01  4.5456323154E-01
  7.7157190635E+03  4.3685278323E+00  6.2893529747E+00  1.6724096460E-01  1.5705231142E-01  4.5855653591E-01
  7.8127090301E+03  4.4352450511E+00  6.2704390417E+00  1.7390295690E-01  1.6299178174E-01  4.6253788352E-01
  7.9096989967E+03  4.5022066320E+00  6.2519830264E+00  1.8074305826E-01  1.6906803865E-01  4.6650780769E-01
  8.0066889632E+03  4.5694045492E+00  6.2339533607E+00  1.8776719059E-01  1.7528475161E-01  4.7046677678E-01
  8.1036789298E+03  4.6368245109E+00  6.2163025691E+00  1.9502252070E-01  1.8168125680E-01  4.7441510532E-01
  8.2006688963E+03  4.7044699231E+00  6.1990285781E+00  2.0246668483E-01  1.8821886985E-01  4.7835309884E-01
  8.2976588629E+03  4.7723659391E+00  6.1821708144E+00  2.1010227053E-01  1.9489826569E-01  4.8228106785E-01
  8.3946488294E+03  4.8404821338E+00  6.1656485554E+00  2.1793186958E-01  2.0171986592E-01  4.8619922237E-01
  8.4916387960E+03  4.9088175150E+00  6.1494514522E+00  2.2595820757E-01  2.0868425626E-01  4.9010769540E-01
  8.5886287625E+03  4.9774140207E+00  6.1336455681E+00  2.3418567474E-01  2.1579355333E-01  4.9400663034E-01
  8.6856187291E+03  5.0462286769E+00  6.1181374215E+00  2.4261509390E-01  2.2304643691E-01  4.9789614452E-01
  8.7826086957E+03  5.1152644722E+00  6.1029253630E+00  2.5124907781E-01  2.3044324554E-01  5.0177625595E-01
  8.8795986622E+03  5.1845631949E+00  6.0880658628E+00  2.6009024331E-01  2.3798443890E-01  5.0564697595E-01
  8.9765886288E+03  5.2540770818E+00  6.0734709181E+00  2.6914121126E-01  2.4567003251E-01  5.0950833714E-01
  9.0735785953E+03  5.3238249572E+00  6.0591623526E+00  2.7842633125E-01  2.5351829419E-01  5.1336030655E-01
  9.1705685619E+03  5.3938278784E+00  6.0451570922E+00  2.8793488158E-01  2.6151815846E-01  5.1720274473E-01
  9.2675585284E+03  5.4640433388E+00  6.0313879359E+00  2.9766282372E-01  2.6966390338E-01  5.2103552131E-01
  9.3645484950E+03  5.5345242765E+00  6.0179146056E+00  3.0761283868E-01  2.7795581379E-01  5.2485851866E-01
  9.4615384615E+03  5.6052395373E+00  6.0046861703E+00  3.1778761170E-01  2.8639370387E-01  5.2867163133E-01
  9.5585284281E+03  5.6761824311E+00  5.9916893090E+00  3.2818983218E-01  2.9497745496E-01  5.3247476160E-01
  9.6555183946E+03  5.7474066492E+00  5.9789728651E+00  3.3882219365E-01  3.0370721589E-01  5.3626772814E-01
  9.7525083612E+03  5.8188401497E+00  5.9664521436E+00  3.4968739372E-01  3.1258240726E-01  5.4005028093E-01
  9.8494983278E+03  5.8905607131E+00  5.9541992119E+00  3.6078813408E-01  3.2160321996E-01  5.4382218244E-01
  9.9464882943E+03  5.9625122183E+00  5.9421493761E+00  3.7212712041E-01  3.3076903921E-01  5.4758320757E-01
  1.0043478261E+04  6.0347178918E+00  5.9303195096E+00  3.8374379336E-01  3.4010850486E-01  5.5133314325E-01
  1.0140468227E+04  6.1071968735E+00  5.9187164471E+00  3.9565241685E-01  3.4962984024E-01  5.5507178482E-01
  1.0237458194E+04  6.1798981805E+00  5.9072917881E+00  4.0781175372E-01  3.5929748192E-01  5.5879887455E-01
  1.0334448161E+04  6.2529177504E+00  5.8961137230E+00  4.2022462595E-01  3.6911152864E-01  5.6251411493E-01
  1.0431438127E+04  6.3261374885E+00  5.8850847617E+00  4.3289386012E-01  3.7907067423E-01  5.6621722059E-01
  1.0528428094E+04  6.3997025144E+00  5.8743048018E+00  4.4582228736E-01  3.8917526119E-01  5.6990791839E-01
  1.0625418060E+04  6.4734757581E+00  5.8636692288E+00  4.5901274328E-01  3.9942371918E-01  5.7358594715E-01
  1.0722408027E+04  6.5475787296E+00  5.8532553291E+00  4.7246806797E-01  4.0981616779E-01  5.7725104708E-01
  1.0819397993E+04  6.6219175699E+00  5.8429943787E+00  4.8619110594E-01  4.2035119005E-01  5.8090291427E-01
  1.0916387960E+04  6.6965735609E+00  5.8329327972E+00  5.0018470610E-01  4.3102855767E-01  5.8454124083E-01
  1.1013377926E+04  6.7714891324E+00  5.8230286019E+00  5.1445172172E-01  4.4184698512E-01  5.8816573149E-01
  1.1110367893E+04  6.8467136728E+00  5.8133064043E+00  5.2899501040E-01  4.5280593542E-01  5.9177610315E-01
  1.1207357860E+04  6.9222160779E+00  5.8037419272E+00  5.4383107362E-01  4.6391413084E-01  5.9537208326E-01
  1.1304347826E+04  6.9980251321E+00  5.7943469269E+00  5.5898587624E-01  4.7518728197E-01  5.9895338116E-01
  1.1401337793E+04  7.0741233656E+00  5.7851059000E+00  5.7442791324E-01  4.8659895969E-01  6.0251969204E-01
  1.1498327759E+04  7.1505333121E+00  5.7760266035E+00  5.9016011051E-01  4.9814825128E-01  6.0607072297E-01
  1.1595317726E+04  7.2272351883E+00  5.7670934717E+00  6.0618539846E-01  5.0983382984E-01  6.0960619337E-01
  1.1692307692E+04  7.3042628001E+00  5.7583190291E+00  6.2250671202E-01  5.2165479585E-01  6.1312583547E-01
  1.1789297659E+04  7.3815748803E+00  5.7496788984E+00  6.3912699061E-01  5.3360953438E-01  6.1662938833E-01
  1.1886287625E+04  7.4592373065E+00  5.7411990575E+00  6.5604917806E-01  5.4569735686E-01  6.2011656073E-01
  1.1983277592E+04  7.5371648274E+00  5.7328376488E+00  6.7327622262E-01  5.5791614170E-01  6.2358706593E-01
  1.2080267559E+04  7.6154795756E+00  5.7246427139E+00  6.9081107695E-01  5.7026566552E-01  6.2704062990E-01
  1.2177257525E+04  7.6940263782E+00  5.7165463189E+00  7.0865669800E-01  5.8274302152E-01  6.3047699104E-01
  1.2274247492E+04  7.7730112976E+00  5.7086271126E+00  7.2681604710E-01  5.9534876999E-01  6.3389590006E-01
  1.2371237458E+04  7.8521797572E+00  5.7007825555E+00  7.4529208983E-01  6.0807887253E-01  6.3729711964E-01
  1.2468227425E+04  7.9318530223E+00  5.6931303895E+00  7.6408779605E-01  6.2093506376E-01  6.4068042429E-01
  1.2565217391E+04  8.0117079295E+00  5.6855476718E+00  7.8326498644E-01  6.3395098329E-01  6.4404560006E-01
  1.2662207358E+04  8.0920240822E+00  5.6781318292E+00  8.0279950711E-01  6.4710939772E-01  6.4739245107E-01
  1.2759197324E+04  8.1725880545E+00  5.6708046289E+00  8.2266633000E-01  6.6038781679E-01  6.5072078105E-01
  1.2856187291E+04  8.2535425151E+00  5.6636119467E+00  8.4286851143E-01  6.7378609715E-01  6.5403035564E-01
  1.2953177258E+04  8.3348345255E+00  5.6565331789E+00  8.6340911229E-01  6.8730193895E-01  6.5732095026E-01
  1.3050167224E+04  8.4164249753E+00  5.6495523103E+00  8.8429119794E-01  7.0093310096E-01  6.6059235265E-01
  1.3147157191E+04  8.4984642767E+00  5.6427152651E+00  9.0551783827E-01  7.1467958470E-01  6.6384436264E-01
  1.3244147157E+04  8.5806914379E+00  5.6359366568E+00  9.2709210759E-01  7.2853640797E-01  6.6707679190E-01
  1.3341137124E+04  8.6634927453E+00  5.6293334760E+00  9.4901708466E-01  7.4250646456E-01  6.7028946372E-01
  1.3438127090E+04  8.7464894528E+00  5.6227872434E+00  9.7129585263E-01  7.5658317285E-01  6.7348221278E-01
  1.3535117057E+04  8.8299337874E+00  5.6163710003E+00  9.9393149904E-01  7.7076779841E-01  6.7665488120E-01
  1.3632107023E+04  8.9137199746E+00  5.6100512154E+00  1.0169271158E+00  7.8505707214E-01  6.7980729761E-01
  1.3729096990E+04  8.9977995939E+00  5.6038115887E+00  1.0403142300E+00  7.9946514024E-01  6.8293929410E-01
  1.3826086957E+04  9.0823954294E+00  5.5977126056E+00  1.0641177388E+00  8.1400535614E-01  6.8605071465E-01
  1.3923076923E+04  9.1671869131E+00  5.5916628262E+00  1.0882935588E+00  8.2864313108E-01  6.8914141477E-01
  1.4020066890E+04  9.2525264793E+00  5.5857559573E+00  1.1128448539E+00  8.4338134932E-01  6.9221126125E-01
  1.4117056856E+04  9.3381512461E+00  5.5799190846E+00  1.1377747925E+00  8.5821425006E-01  6.9526013193E-01
  1.4214046823E+04  9.4241219385E+00  5.5741662921E+00  1.1630865474E+00  8.7314057476E-01  6.9828791536E-01
  1.4311036789E+04  9.5106007517E+00  5.5685373110E+00  1.1887832961E+00  8.8816066983E-01  7.0129451042E-01
  1.4408026756E+04  9.5972809678E+00  5.5629519775E+00  1.2148682205E+00  9.0326778963E-01  7.0427981470E-01
  1.4505016722E+04  9.6845425038E+00  5.5575032052E+00  1.2413445070E+00  9.1846561336E-01  7.0724372067E-01
  1.4602006689E+04  9.7721013072E+00  5.5521187289E+00  1.2682153462E+00  9.3374763806E-01  7.1018613073E-01
  1.4698996656E+04  9.8599815441E+00  5.5468028765E+00  1.2954839335E+00  9.4911201557E-01  7.1310695788E-01
  1.4795986622E+04  9.9484402374E+00  5.5416147865E+00  1.3231534684E+00  9.6456076790E-01  7.1600612551E-01
  1.4892976589E+04  1.0037106790E+01  5.5364653995E+00  1.3512271549E+00  9.8008566492E-01  7.1888356708E-01
  1.4989966555E+04  1.0126300564E+01  5.5314268302E+00  1.3797082012E+00  9.9568979312E-01  7.2173922589E-01
  1.5086956522E+04  1.0215891947E+01  5.5264675210E+00  1.4086792096E+00  1.0114097674E+00  7.2457305456E-01
  1.5183946488E+04  1.0305694247E+01  5.5215443957E+00  1.4380761299E+00  1.0272045238E+00  7.2738500540E-01
  1.5280936455E+04  1.0396216135E+01  5.5167684683E+00  1.4678932335E+00  1.0430760832E+00  7.3017502711E-01
  1.5377926421E+04  1.0486964303E+01  5.5120293319E+00  1.4981337973E+00  1.0590135413E+00  7.3294307720E-01
  1.5474916388E+04  1.0578074338E+01  5.5073556497E+00  1.5288011025E+00  1.0750170152E+00  7.3568912273E-01
  1.5571906355E+04  1.0669783094E+01  5.5027964734E+00  1.5598984350E+00  1.0910886891E+00  7.3841313995E-01
  1.5668896321E+04  1.0761710093E+01  5.4982693452E+00  1.5914290848E+00  1.1072192460E+00  7.4111511408E-01
  1.5765886288E+04  1.0854143093E+01  5.4938337078E+00  1.6233963466E+00  1.1234118602E+00  7.4379503900E-01
  1.5862876254E+04  1.0947049591E+01  5.4894809755E+00  1.6558035195E+00  1.1396637546E+00  7.4645291531E-01
  1.5959866221E+04  1.1040177728E+01  5.4851581932E+00  1.6886539070E+00  1.1559677242E+00  7.4908873875E-01
  1.6056856187E+04  1.1133935862E+01  5.4809472789E+00  1.7219508168E+00  1.1723296557E+00  7.5170250744E-01
  1.6153846154E+04  1.1228062574E+01  5.4767936609E+00  1.7556975611E+00  1.1887421480E+00  7.5429422803E-01
  1.6250836120E+04  1.1322414430E+01  5.4726680269E+00  1.7898974564E+00  1.2051999474E+00  7.5686391541E-01
  1.6347826087E+04  1.1417498085E+01  5.4686690478E+00  1.8245538236E+00  1.2217114065E+00  7.5941159247E-01
  1.6444816054E+04  1.1512867752E+01  5.4647076540E+00  1.8596699876E+00  1.2382650345E+00  7.6193728977E-01
  1.6541806020E+04  1.1608471537E+01  5.4607734237E+00  1.8952492780E+00  1.2548573867E+00  7.6444104483E-01
  1.6638795987E+04  1.1704873885E+01  5.4569730601E+00  1.9312950282E+00  1.2714985754E+00  7.6692289298E-01
  1.6735785953E+04  1.1801509512E+01  5.4531974070E+00  1.9678105761E+00  1.2881741198E+00  7.6938286821E-01
  1.6832775920E+04  1.1898418238E+01  5.4494536968E+00  2.0047992637E+00  1.3048825886E+00  7.7182101173E-01
  1.6929765886E+04  1.1996105981E+01  5.4458346199E+00  2.0422644373E+00  1.3216333162E+00  7.7423737198E-01
  1.7026755853E+04  1.2094030829E+01  5.4422386004E+00  2.0802094473E+00  1.3384118775E+00  7.7663200436E-01
  1.7123745819E+04  1.2192239063E+01  5.4386738423E+00  2.1186376481E+00  1.3552170678E+00  7.7900497098E-01
  1.7220735786E+04  1.2291235599E+01  5.4352301957E+00  2.1575523985E+00  1.3720586887E+00  7.8135633979E-01
  1.7317725753E+04  1.2390473178E+01  5.4318080520E+00  2.1969570612E+00  1.3889217573E+00  7.8368617590E-01
  1.7414715719E+04  1.2489973394E+01  5.4284110763E+00  2.2368550031E+00  1.4058045537E+00  7.8599454341E-01
  1.7511705686E+04  1.2590301887E+01  5.4251373271E+00  2.2772851714E+00  1.4227327342E+00  7.8828151271E-01
  1.7608695652E+04  1.2690875469E+01  5.4218836179E+00  2.3184796032E+00  1.4397777097E+00  7.9054716040E-01
  1.7705685619E+04  1.2791693384E+01  5.4186497166E+00  2.3601865245E+00  1.4568363847E+00  7.9279156907E-01
  1.7802675585E+04  1.2893336803E+01  5.4155344669E+00  2.4024094465E+00  1.4739214606E+00  7.9501482699E-01
  1.7899665552E+04  1.2995264910E+01  5.4124439740E+00  2.4451518851E+00  1.4910172035E+00  7.9721702508E-01
  1.7996655518E+04  1.3097441465E+01  5.4093719313E+00  2.4884173607E+00  1.5081205126E+00  7.9939824824E-01
  1.8093645485E+04  1.3200359229E+01  5.4064008293E+00  2.5322093981E+00  1.5252423795E+00  8.0155858470E-01
  1.8190635452E+04  1.3303657446E+01  5.4034685744E+00  2.5765315271E+00  1.5423713666E+00  8.0369812823E-01
  1.8287625418E+04  1.3407208257E+01  5.4005534902E+00  2.6213872816E+00  1.5595019854E+00  8.0581697789E-01
  1.8384615385E+04  1.3511380956E+01  5.3977164387E+00  2.6667802003E+00  1.5766423725E+00  8.0791523777E-01
  1.8481605351E+04  1.3616064696E+01  5.3949377111E+00  2.7127138263E+00  1.5937876802E+00  8.0999301671E-01
  1.8578595318E+04  1.3721005202E+01  5.3921749472E+00  2.7591917071E+00  1.6109288988E+00  8.1205042808E-01
  1.8675585284E+04  1.3826412146E+01  5.3894621602E+00  2.8062173948E+00  1.6280700274E+00  8.1408758951E-01
  1.8772575251E+04  1.3932496683E+01  5.3868324990E+00  2.8537944459E+00  1.6452153731E+00  8.1610462264E-01
  1.8869565217E+04  1.4038842189E+01  5.3842176624E+00  2.9019264214E+00  1.6623511353E+00  8.1810165294E-01
  1.8966555184E+04  1.4145461400E+01  5.3816196429E+00  2.9506168864E+00  1.6794757527E+00  8.2007880941E-01
  1.9063545151E+04  1.4252961867E+01  5.3791348206E+00  2.9998694108E+00  1.6966055296E+00  8.2203622504E-01
  1.9160535117E+04  1.4360727533E+01  5.3766637469E+00  3.0496875687E+00  1.7137204655E+00  8.2397405113E-01
  1.9257525084E+04  1.4468757706E+01  5.3742062768E+00  3.1000749385E+00  1.7308186808E+00  8.2589241009E-01
  1.9354515050E+04  1.4577467123E+01  5.3718272738E+00  3.1510351030E+00  1.7479111781E+00  8.2779141321E-01
  1.9451505017E+04  1.4686667967E+01  5.3694960125E+00  3.2025716493E+00  1.7649906303E+00  8.2967117607E-01
  1.9548494983E+04  1.4796137588E+01  5.3671773507E+00  3.2546881688E+00  1.7820484330E+00  8.3153181833E-01
  1.9645484950E+04  1.4906017735E+01  5.3648931250E+00  3.3073882573E+00  1.7990873627E+00  8.3337346345E-01
  1.9742474916E+04  1.5016668625E+01  5.3626979253E+00  3.3606755147E+00  1.8161174060E+00  8.3519623848E-01
  1.9839464883E+04  1.5127592593E+01  5.3605143754E+00  3.4145535453E+00  1.8331211250E+00  8.3700027384E-01
  1.9936454849E+04  1.5238788974E+01  5.3583423569E+00  3.4690259576E+00  1.8500968369E+00  8.3878570306E-01
  2.0033444816E+04  1.5350732371E+01  5.3562535084E+00  3.5241335827E+00  1.8670690836E+00  8.4055266261E-01
  2.0130434783E+04  1.5463124532E+01  5.3542014836E+00  3.5799154802E+00  1.8840360717E+00  8.4230129167E-01
  2.0227424749E+04  1.5575793438E+01  5.3521601024E+00  3.6363055320E+00  1.9009707151E+00  8.4403173066E-01
  2.0324414716E+04  1.5688858410E+01  5.3501471963E+00  3.6933074000E+00  1.9178755346E+00  8.4574409722E-01
  2.0421404682E+04  1.5802727366E+01  5.3482228790E+00  3.7509247502E+00  1.9347631323E+00  8.4743851894E-01
  2.0518394649E+04  1.5916877371E+01  5.3463083668E+00  3.8091612528E+00  1.9516142837E+00  8.4911513398E-01
  2.0615384615E+04  1.6031307784E+01  5.3444035636E+00  3.8680205824E+00  1.9684275003E+00  8.5077408295E-01
  2.0712374582E+04  1.6146389131E+01  5.3425630081E+00  3.9275064179E+00  1.9852144774E+00  8.5241550867E-01
  2.0809364548E+04  1.6262026665E+01  5.3407716384E+00  3.9876224425E+00  2.0019706986E+00  8.5403955603E-01
  2.0906354515E+04  1.6377948875E+01  5.3389891952E+00  4.0483723434E+00  2.0186852295E+00  8.5564637178E-01
  2.1003344482E+04  1.6494155138E+01  5.3372155929E+00  4.1097598123E+00  2.0353566993E+00  8.5723610437E-01
  2.1100334448E+04  1.6611225898E+01  5.3355350052E+00  4.1717885450E+00  2.0520050965E+00  8.5880890381E-01
  2.1197324415E+04  1.6728645861E+01  5.3338714140E+00  4.2344622415E+00  2.0686105039E+00  8.6036492143E-01
  2.1294314381E+04  1.6846354109E+01  5.3322159324E+00  4.2977846059E+00  2.0851694384E+00  8.6190430982E-01
  2.1391304348E+04  1.6964458867E+01  5.3305841547E+00  4.3617593465E+00  2.1016847521E+00  8.6342722192E-01
  2.1488294314E+04  1.7083382114E+01  5.3290360693E+00  4.4263901760E+00  2.1181713338E+00  8.6493379470E-01
  2.1585284281E+04  1.7202597830E+01  5.3274954022E+00  4.4916808108E+00  2.1346082832E+00  8.6642415944E-01
  2.1682274247E+04  1.7322105416E+01  5.3259620848E+00  4.5576349717E+00  2.1509944317E+00  8.6789844965E-01
  2.1779264214E+04  1.7442140303E+01  5.3244695652E+00  4.6242563836E+00  2.1673378373E+00  8.6935680086E-01
  2.1876254181E+04  1.7562868549E+01  5.3230405559E+00  4.6915487754E+00  2.1836440727E+00  8.7079935046E-01
  2.1973244147E+04  1.7683892813E+01  5.3216182491E+00  4.7595158802E+00  2.1998966800E+00  8.7222623750E-01
  2.2070234114E+04  1.7805212508E+01  5.3202025842E+00  4.8281614349E+00  2.2160946030E+00  8.7363760255E-01
  2.2167224080E+04  1.7927147886E+01  5.3188384605E+00  4.8974891809E+00  2.2322497074E+00  8.7503358752E-01
  2.2264214047E+04  1.8049693423E+01  5.3175241831E+00  4.9675028632E+00  2.2483609920E+00  8.7641433551E-01
  2.2361204013E+04  1.8172538499E+01  5.3162159413E+00  5.0382075699E+00  2.2644153578E+00  8.7777999058E-01
  2.2458193980E+04  1.8295682543E+01  5.3149136814E+00  5.1098651677E+00  2.2804632569E+00  8.7913069173E-01
  2.2555183946E+04  1.8419487900E+01  5.3136675683E+00  5.1822262588E+00  2.2964669012E+00  8.8046656982E-01
  2.2652173913E+04  1.8543862487E+01  5.3124639308E+00  5.2552946756E+00  2.3124217951E+00  8.8178775654E-01
  2.2749163880E+04  1.8668540112E+01  5.3112657068E+00  5.3290742552E+00  2.3283161174E+00  8.8309438509E-01
  2.2846153846E+04  1.8793520215E+01  5.3100728490E+00  5.4035688386E+00  2.3441490151E+00  8.8438658998E-01
  2.2943143813E+04  1.8919164248E+01  5.3089348045E+00  5.4787822714E+00  2.3599350746E+00  8.8566450693E-01
  2.3040133779E+04  1.9045379119E+01  5.3078379482E+00  5.5547184031E+00  2.3756697408E+00  8.8692827272E-01
  2.3137123746E+04  1.9171900498E+01  5.3067459247E+00  5.6313810875E+00  2.3913410562E+00  8.8817802499E-01
  2.3234113712E+04  1.9298727838E+01  5.3056586927E+00  5.7087741826E+00  2.4069482697E+00  8.8941390219E-01
  2.3331103679E+04  1.9426178547E+01  5.3046191873E+00  5.7869015506E+00  2.4225045632E+00  8.9063604339E-01
  2.3428093645E+04  1.9554244409E+01  5.3036254699E+00  5.8657670578E+00  2.4380090660E+00  8.9184458520E-01
  2.3525083612E+04  1.9682620218E+01  5.3026360430E+00  5.9453745748E+00  2.4534478274E+00  8.9303965572E-01
  2.3622073579E+04  1.9811305443E+01  5.3016508703E+00  6.0257279761E+00  2.4688201935E+00  8.9422138241E-01
  2.3719063545E+04  1.9940530225E+01  5.3007007592E+00  6.1068311406E+00  2.4841358883E+00  8.9538989373E-01
  2.3816053512E+04  2.0070457254E+01  5.2998067394E+00  6.1886879510E+00  2.4994017723E+00  8.9654531910E-01
  2.3913043478E+04  2.0200697642E+01  5.2989165029E+00  6.2713022943E+00  2.5145998928E+00  8.9768778870E-01
  2.4010033445E+04  2.0331250868E+01  5.2980300185E+00  6.3546780616E+00  2.5297296876E+00  8.9881743336E-01
  2.4107023411E+04  2.0462216611E+01  5.2971605156E+00  6.4388191480E+00  2.5447952277E+00  8.9993438443E-01
  2.4204013378E+04  2.0594014459E+01  5.2963629385E+00  6.5237294527E+00  2.5598154359E+00  9.0103877371E-01
  2.4301003344E+04  2.0726129045E+01  5.2955686704E+00  6.6094128789E+00  2.5747662056E+00  9.0213073325E-01
  2.4397993311E+04  2.0858559861E+01  5.2947776845E+00  6.6958733339E+00  2.5896470610E+00  9.0321039144E-01
  2.4494983278E+04  2.0991306403E+01  5.2939899542E+00  6.7831147289E+00  2.6044575483E+00  9.0427786987E-01
  2.4591973244E+04  2.1124910834E+01  5.2932761231E+00  6.8711409793E+00  2.6192228804E+00  9.0533329008E-01
  2.4688963211E+04  2.1258908710E+01  5.2925747725E+00  6.9599560043E+00  2.6339208809E+00  9.0637677430E-01
  2.4785953177E+04  2.1393226175E+01  5.2918762642E+00  7.0495637273E+00  2.6485476984E+00  9.0740844527E-01
  2.4882943144E+04  2.1527862736E+01  5.2911805755E+00  7.1399680755E+00  2.6631029585E+00  9.0842842621E-01
  2.4979933110E+04  2.1663139134E+01  5.2905291386E+00  7.2311729801E+00  2.6776018329E+00  9.0943684063E-01
  2.5076923077E+04  2.1799028547E+01  5.2899177659E+00  7.3234254356E+00  2.6920756778E+00  9.1043381229E-01
  2.5173913043E+04  2.1935240871E+01  5.2893088234E+00  7.4165556304E+00  2.7064856486E+00  9.1141946508E-01
  2.5270903010E+04  2.2071775623E+01  5.2887022923E+00  7.5105048435E+00  2.7208228389E+00  9.1239392202E-01
  2.5367892977E+04  2.2208689278E+01  5.2881054368E+00  7.6052770885E+00  2.7350897742E+00  9.1335729965E-01
  2.5464882943E+04  2.2346475807E+01  5.2875809368E+00  7.7008763829E+00  2.7493106790E+00  9.1430971212E-01
  2.5561872910E+04  2.2484588510E+01  5.2870584825E+00  7.7973067486E+00  2.7634583944E+00  9.1525127401E-01
  2.5658862876E+04  2.2623026918E+01  5.2865380581E+00  7.8945722113E+00  2.7775326847E+00  9.1618210024E-01
  2.5755852843E+04  2.2761790564E+01  5.2860196482E+00  7.9926768011E+00  2.7915333316E+00  9.1710230600E-01
  2.5852842809E+04  2.2901231340E+01  5.2855476363E+00  8.0916245521E+00  2.8054779303E+00  9.1801200661E-01
  2.5949832776E+04  2.3041248424E+01  5.2851086197E+00  8.1914195024E+00  2.8193613264E+00  9.1891131749E-01
  2.6046822742E+04  2.3181594424E+01  5.2846712771E+00  8.2920656942E+00  2.8331709024E+00  9.1980035403E-01
  2.6143812709E+04  2.3322268882E+01  5.2842355960E+00  8.3935671739E+00  2.8469065029E+00  9.2067923104E-01
  2.6240802676E+04  2.3463272596E+01  5.2838017206E+00  8.4959279918E+00  2.8605680524E+00  9.2154805802E-01
  2.6337792642E+04  2.3605197386E+01  5.2834432401E+00  8.5991522022E+00  2.8741859903E+00  9.2240694154E-01
  2.6434782609E+04  2.3747454234E+01  5.2830861015E+00  8.7032438635E+00  2.8877299419E+00  9.2325598842E-01
  2.6531772575E+04  2.3890042694E+01  5.2827302949E+00  8.8082070382E+00  2.9011998091E+00  9.2409530561E-01
  2.6628762542E+04  2.4032962322E+01  5.2823758105E+00  8.9140457927E+00  2.9145955084E+00  9.2492500018E-01
  2.6725752508E+04  2.4176411033E+01  5.2820471203E+00  9.0207641974E+00  2.9279274020E+00  9.2574517921E-01
  2.6822742475E+04  2.4320581318E+01  5.2817674458E+00  9.1283663267E+00  2.9412056432E+00  9.2655594971E-01
  2.6919732441E+04  2.4465086299E+01  5.2814887954E+00  9.2368562589E+00  2.9544098944E+00  9.2735741856E-01
  2.7016722408E+04  2.4609925543E+01  5.2812111619E+00  9.3462380764E+00  2.9675401231E+00  9.2814969698E-01
  2.7113712375E+04  2.4755098618E+01  5.2809345377E+00  9.4565158654E+00  2.9805963102E+00  9.2893289261E-01
  2.7210702341E+04  2.4900949698E+01  5.2807009407E+00  9.5676937162E+00  2.9935969348E+00  9.2970710026E-01
  2.7307692308E+04  2.5047373055E+01  5.2804968560E+00  9.6797757229E+00  3.0065364149E+00  9.3047241492E-01
  2.7404682274E+04  2.5194133698E+01  5.2802935027E+00  9.7927699259E+00  3.0194025720E+00  9.3122893188E-01
  2.7501672241E+04  2.5341231206E+01  5.2800908756E+00  9.9066933773E+00  3.0321966289E+00  9.3197674664E-01
  2.7598662207E+04  2.5488665161E+01  5.2798889696E+00  1.0021533727E+01  3.0449170347E+00  9.3271595483E-01
  2.7695652174E+04  2.5636875566E+01  5.2797409012E+00  1.0137295088E+01  3.0575879184E+00  9.3344665215E-01
  2.7792642140E+04  2.5785558735E+01  5.2796093757E+00  1.0253981580E+01  3.0701928118E+00  9.3416893429E-01
  2.7889632107E+04  2.5934581730E+01  5.2794783116E+00  1.0371597324E+01  3.0827245428E+00  9.3488289685E-01
  2.7986622074E+04  2.6083944142E+01  5.2793477058E+00  1.0490146447E+01  3.0951831881E+00  9.3558863530E-01
  2.8083612040E+04  2.6233645564E+01  5.2792175550E+00  1.0609633077E+01  3.1075688348E+00  9.3628624489E-01
  2.8180602007E+04  2.6384172040E+01  5.2791459442E+00  1.0730061348E+01  3.1199086701E+00  9.3697582063E-01
  2.8277591973E+04  2.6535120925E+01  5.2790841186E+00  1.0851435399E+01  3.1321804431E+00  9.3765745720E-01
  2.8374581940E+04  2.6686412124E+01  5.2790225055E+00  1.0973759370E+01  3.1443798312E+00  9.3833124893E-01
  2.8471571906E+04  2.6838045238E+01  5.2789611034E+00  1.1097037406E+01  3.1565069559E+00  9.3899728973E-01
  2.8568561873E+04  2.6990019873E+01  5.2788999107E+00  1.1221273656E+01  3.1685619474E+00  9.3965567305E-01
  2.8665551839E+04  2.7142819171E+01  5.2788961481E+00  1.1346472273E+01  3.1805723566E+00  9.4030648939E-01
  2.8762541806E+04  2.7296038841E+01  5.2789013220E+00  1.1472637413E+01  3.1925154643E+00  9.4094982123E-01
  2.8859531773E+04  2.7449603258E+01  5.2789064785E+00  1.1599773237E+01  3.2043871594E+00  9.4158574979E-01
  2.8956521739E+04  2.7603512034E+01  5.2789116177E+00  1.1727883909E+01  3.2161876017E+00  9.4221435642E-01
  2.9053511706E+04  2.7757764783E+01  5.2789167397E+00  1.1856973596E+01  3.2279169590E+00  9.4283572254E-01
  2.9150501672E+04  2.7912793878E+01  5.2789726489E+00  1.1987046471E+01  3.2396003685E+00  9.4344992956E-01
  2.9247491639E+04  2.8068288571E+01  5.2790422688E+00  1.2118106708E+01  3.2512201276E+00  9.4405705885E-01
  2.9344481605E+04  2.8224130385E+01  5.2791116590E+00  1.2250158487E+01  3.2627696122E+00  9.4465719165E-01
  2.9441471572E+04  2.8380318944E+01  5.2791808212E+00  1.2383205990E+01  3.2742490149E+00  9.4525040905E-01
  2.9538461538E+04  2.8536853873E+01  5.2792497569E+00  1.2517253405E+01  3.2856585351E+00  9.4583679194E-01
  2.9635451505E+04  2.8694070188E+01  5.2793575679E+00  1.2652304920E+01  3.2970180563E+00  9.4641642092E-01
  2.9732441472E+04  2.8851843313E+01  5.2794892165E+00  1.2788364731E+01  3.3083205092E+00  9.4698937631E-01
  2.9829431438E+04  2.9009965875E+01  5.2796204395E+00  1.2925437035E+01  3.3195539650E+00  9.4755573808E-01
  2.9926421405E+04  2.9168437509E+01  5.2797512398E+00  1.3063526033E+01  3.3307186439E+00  9.4811558583E-01
  3.0023411371E+04  2.9327257849E+01  5.2798816202E+00  1.3202792330E+01  3.3418247922E+00  9.4866899873E-01
  3.0120401338E+04  2.9486619788E+01  5.2800339320E+00  1.3343582527E+01  3.3529053368E+00  9.4921605549E-01
  3.0217391304E+04  2.9646674789E+01  5.2802252820E+00  1.3485413802E+01  3.3639378889E+00  9.4975683215E-01
  3.0314381271E+04  2.9807081489E+01  5.2804160257E+00  1.3628290472E+01  3.3749023769E+00  9.5029139874E-01
  3.0411371237E+04  2.9967839529E+01  5.2806061670E+00  1.3772216855E+01  3.3857990452E+00  9.5081982439E-01
  3.0508361204E+04  3.0128948558E+01  5.2807957096E+00  1.3917197275E+01  3.3966281432E+00  9.5134217823E-01
  3.0605351171E+04  3.0290415445E+01  5.2809854824E+00  1.4063236058E+01  3.4073903597E+00  9.5185852932E-01
  3.0702341137E+04  3.0452757117E+01  5.2812342374E+00  1.4210337536E+01  3.4181170847E+00  9.5236894665E-01
  3.0799331104E+04  3.0615452708E+01  5.2814822195E+00  1.4358506044E+01  3.4287772389E+00  9.5287349903E-01
  3.0896321070E+04  3.0778501870E+01  5.2817294334E+00  1.4507745920E+01  3.4393710859E+00  9.5337225509E-01
  3.0993311037E+04  3.0941904259E+01  5.2819758840E+00  1.4658061508E+01  3.4498988937E+00  9.5386528325E-01
  3.1090301003E+04  3.1105659530E+01  5.2822215761E+00  1.4809457153E+01  3.4603609338E+00  9.5435265164E-01
  3.1187290970E+04  3.1270069302E+01  5.2825003894E+00  1.4961937207E+01  3.4707758253E+00  9.5483442811E-01
