#[MATERIAL DEFINITION FOR MC-GPU: interaction mean free path and sampling data from PENELOPE 2006]
#[MATERIAL NAME]
# MATERIAL13                                                    
#[NOMINAL DENSITY (g/cm^3)]
#   1.00000000
#[NUMBER OF DATA VALUES]
#   1495
#[MEAN FREE PATHS (cm) (ie, average distance between interactions)]
#[Energy (eV)     | Rayleigh        | Compton         | Photoelectric   | TOTAL (+pair prod) (cm) | Rayleigh: max cumul prob F^2]
  5.0000000000E+03  1.6068094043E+00  8.3179621796E+00  9.9231806526E-03  9.8505947031E-03  2.8026969004E-01
  5.0969899666E+03  1.6383669209E+00  8.2483458553E+00  1.0461867939E-02  1.0382402011E-02  2.8516179622E-01
  5.1939799331E+03  1.6701498251E+00  8.1816004007E+00  1.1018674201E-02  1.0931829785E-02  2.9000042139E-01
  5.2909698997E+03  1.7021536532E+00  8.1175581673E+00  1.1593846814E-02  1.1499099704E-02  2.9478766089E-01
  5.3879598662E+03  1.7343738605E+00  8.0560634577E+00  1.2187631674E-02  1.2084431121E-02  2.9952552107E-01
  5.4849498328E+03  1.7668058374E+00  7.9969714925E+00  1.2800432210E-02  1.2688197277E-02  3.0421590165E-01
  5.5819397993E+03  1.7994449249E+00  7.9401474837E+00  1.3434251360E-02  1.3312340738E-02  3.0886065313E-01
  5.6789297659E+03  1.8322864300E+00  7.8854658011E+00  1.4087563814E-02  1.3955336459E-02  3.1346157210E-01
  5.7759197324E+03  1.8653256404E+00  7.8328092221E+00  1.4760613883E-02  1.4617398223E-02  3.1802031991E-01
  5.8729096990E+03  1.8985578396E+00  7.7820682544E+00  1.5453644546E-02  1.5298737529E-02  3.2253847562E-01
  5.9698996656E+03  1.9319783263E+00  7.7331405181E+00  1.6166897478E-02  1.5999563603E-02  3.2701758527E-01
  6.0668896321E+03  1.9655826993E+00  7.6859298925E+00  1.6902371104E-02  1.6721804094E-02  3.3145910499E-01
  6.1638795987E+03  1.9993673467E+00  7.6403455341E+00  1.7659484094E-02  1.7464857775E-02  3.3586436323E-01
  6.2608695652E+03  2.0333293972E+00  7.5963015743E+00  1.8440250890E-02  1.8230661659E-02  3.4023465644E-01
  6.3578595318E+03  2.0674660295E+00  7.5537175038E+00  1.9250095055E-02  1.9024476418E-02  3.4457127988E-01
  6.4548494983E+03  2.1017836647E+00  7.5125544482E+00  2.0082292869E-02  1.9839692212E-02  3.4887534635E-01
  6.5518394649E+03  2.1362816873E+00  7.4727482392E+00  2.0940520227E-02  2.0679859425E-02  3.5314784765E-01
  6.6488294314E+03  2.1709477673E+00  7.4341939238E+00  2.1823158264E-02  2.1543355840E-02  3.5738976589E-01
  6.7458193980E+03  2.2057789729E+00  7.3968284706E+00  2.2729277427E-02  2.2429235643E-02  3.6160207382E-01
  6.8428093645E+03  2.2407723883E+00  7.3605926535E+00  2.3659146472E-02  2.3337721234E-02  3.6578573523E-01
  6.9397993311E+03  2.2759251235E+00  7.3254307935E+00  2.4613033225E-02  2.4269032756E-02  3.6994166691E-01
  7.0367892977E+03  2.3112353432E+00  7.2912941444E+00  2.5593123103E-02  2.5225252013E-02  3.7407058188E-01
  7.1337792642E+03  2.3467312780E+00  7.2582389699E+00  2.6601117457E-02  2.6207988558E-02  3.7817313477E-01
  7.2307692308E+03  2.3823815179E+00  7.2261106618E+00  2.7634244398E-02  2.7214497747E-02  3.8224997990E-01
  7.3277591973E+03  2.4181841784E+00  7.1948649388E+00  2.8692775577E-02  2.8244997079E-02  3.8630177070E-01
  7.4247491639E+03  2.4541373179E+00  7.1644601195E+00  2.9776981793E-02  2.9299701729E-02  3.9032915911E-01
  7.5217391304E+03  2.4902575351E+00  7.1349134636E+00  3.0887133000E-02  3.0378828332E-02  3.9433272155E-01
  7.6187290970E+03  2.5265497748E+00  7.1062031199E+00  3.2023498326E-02  3.1482589382E-02  3.9831289535E-01
  7.7157190635E+03  2.5629889254E+00  7.0782216752E+00  3.3186346080E-02  3.2611188634E-02  4.0227010833E-01
  7.8127090301E+03  2.5995728373E+00  7.0509360055E+00  3.4375943768E-02  3.3764831964E-02  4.0620479194E-01
  7.9096989967E+03  2.6363292050E+00  7.0243957512E+00  3.5592558102E-02  3.4943730121E-02  4.1011738076E-01
  8.0066889632E+03  2.6732489993E+00  6.9985458570E+00  3.6837846367E-02  3.6149423234E-02  4.1400828515E-01
  8.1036789298E+03  2.7103097697E+00  6.9733012908E+00  3.8130098137E-02  3.7399442022E-02  4.1787780041E-01
  8.2006688963E+03  2.7475189738E+00  6.9486595468E+00  3.9451365338E-02  3.8676426814E-02  4.2172619811E-01
  8.2976588629E+03  2.7849163352E+00  6.9246912461E+00  4.0801940619E-02  3.9980607529E-02  4.2555375574E-01
  8.3946488294E+03  2.8224521573E+00  6.9012514432E+00  4.2182116004E-02  4.1312186982E-02  4.2936075608E-01
  8.4916387960E+03  2.8601262141E+00  6.8783227034E+00  4.3592187732E-02  4.2671383236E-02  4.3314746360E-01
  8.5886287625E+03  2.8980013183E+00  6.8560216574E+00  4.5032512709E-02  4.4058490611E-02  4.3691405752E-01
  8.6856187291E+03  2.9360118411E+00  6.8341829521E+00  4.6503314329E-02  4.5473634066E-02  4.4066070353E-01
  8.7826086957E+03  2.9741635202E+00  6.8128046459E+00  4.8004882303E-02  4.6917021718E-02  4.4438757416E-01
  8.8795986622E+03  3.0125151740E+00  6.7919845759E+00  4.9537505758E-02  4.8388878294E-02  4.4809484768E-01
  8.9765886288E+03  3.0509984538E+00  6.7715697355E+00  5.1101473243E-02  4.9889382161E-02  4.5178267058E-01
  9.0735785953E+03  3.0896403870E+00  6.7515983687E+00  5.2705031842E-02  5.1426319781E-02  4.5545113551E-01
  9.1705685619E+03  3.1284663948E+00  6.7320975426E+00  5.4343515098E-02  5.2995161477E-02  4.5910033750E-01
  9.2675585284E+03  3.1674199292E+00  6.7129530527E+00  5.6014752852E-02  5.4593735695E-02  4.6273037866E-01
  9.3645484950E+03  3.2065672690E+00  6.6942639497E+00  5.7719042905E-02  5.6222269818E-02  4.6634135932E-01
  9.4615384615E+03  3.2458663827E+00  6.6759435653E+00  5.9456682554E-02  5.7880944963E-02  4.6993333356E-01
  9.5585284281E+03  3.2853100911E+00  6.6579705176E+00  6.1227968595E-02  5.9569953158E-02  4.7350634302E-01
  9.6555183946E+03  3.3249581801E+00  6.6404213404E+00  6.3033197335E-02  6.1289514325E-02  4.7706043677E-01
  9.7525083612E+03  3.3647274059E+00  6.6231598496E+00  6.4872664593E-02  6.3039780764E-02  4.8059567528E-01
  9.8494983278E+03  3.4047037919E+00  6.6062989652E+00  6.6746665706E-02  6.4820980928E-02  4.8411211104E-01
  9.9464882943E+03  3.4448233330E+00  6.5897354038E+00  6.8655495534E-02  6.6633269135E-02  4.8760973024E-01
  1.0043478261E+04  3.4851114416E+00  6.5734952844E+00  7.0607816145E-02  6.8484712391E-02  4.9108851997E-01
  1.0140468227E+04  3.5255841616E+00  6.5575869118E+00  7.2606487586E-02  7.0377880012E-02  4.9454847529E-01
  1.0237458194E+04  3.5661901033E+00  6.5419369496E+00  7.4641760748E-02  7.2303457731E-02  4.9798959882E-01
  1.0334448161E+04  3.6070196201E+00  6.5266462273E+00  7.6713946042E-02  7.4261682675E-02  5.0141190029E-01
  1.0431438127E+04  3.6479587113E+00  6.5115690040E+00  7.8823353495E-02  7.6252673941E-02  5.0481539623E-01
  1.0528428094E+04  3.6891402412E+00  6.4968518978E+00  8.0970292743E-02  7.8276691070E-02  5.0820010529E-01
  1.0625418060E+04  3.7304370221E+00  6.4823403591E+00  8.3155073044E-02  8.0333836003E-02  5.1156599933E-01
  1.0722408027E+04  3.7719562610E+00  6.4681464212E+00  8.5378003275E-02  8.2424351097E-02  5.1491302949E-01
  1.0819397993E+04  3.8136134685E+00  6.4541694918E+00  8.7639391939E-02  8.4548355247E-02  5.1824115555E-01
  1.0916387960E+04  3.8554775439E+00  6.4404758295E+00  8.9939547168E-02  8.6706064011E-02  5.2155034500E-01
  1.1013377926E+04  3.8974974448E+00  6.4270042882E+00  9.2278776727E-02  8.8897609999E-02  5.2484057264E-01
  1.1110367893E+04  3.9397135607E+00  6.4137894117E+00  9.4657388014E-02  9.1123185914E-02  5.2811182025E-01
  1.1207357860E+04  3.9820979324E+00  6.4007957501E+00  9.7081397609E-02  9.3388216522E-02  5.3136407630E-01
  1.1304347826E+04  4.0246733650E+00  6.3880394648E+00  9.9560718234E-02  9.5701729861E-02  5.3459731885E-01
  1.1401337793E+04  4.0674234772E+00  6.3754977587E+00  1.0208122695E-01  9.8050492607E-02  5.3781149474E-01
  1.1498327759E+04  4.1103655713E+00  6.3631810657E+00  1.0464324571E-01  1.0043468158E-01  5.4100655478E-01
  1.1595317726E+04  4.1534821664E+00  6.3510668591E+00  1.0724709619E-01  1.0285444241E-01  5.4418245728E-01
  1.1692307692E+04  4.1967983322E+00  6.3391718654E+00  1.0989309977E-01  1.0530995316E-01  5.4733916774E-01
  1.1789297659E+04  4.2402816062E+00  6.3274620635E+00  1.1258157756E-01  1.0780133969E-01  5.5047665856E-01
  1.1886287625E+04  4.2839793156E+00  6.3159719009E+00  1.1531285038E-01  1.1032879462E-01  5.5359490875E-01
  1.1983277592E+04  4.3278288991E+00  6.3046446738E+00  1.1808723877E-01  1.1289240898E-01  5.5669389169E-01
  1.2080267559E+04  4.3719156818E+00  6.2935434237E+00  1.2090506298E-01  1.1549240653E-01  5.5977356038E-01
  1.2177257525E+04  4.4161306205E+00  6.2825781174E+00  1.2376664301E-01  1.1812882500E-01  5.6283387267E-01
  1.2274247492E+04  4.4606140610E+00  6.2718507436E+00  1.2667229857E-01  1.2080193948E-01  5.6587479355E-01
  1.2371237458E+04  4.5051927966E+00  6.2612277993E+00  1.2962234911E-01  1.2351171210E-01  5.6889629480E-01
  1.2468227425E+04  4.5500805442E+00  6.2508601001E+00  1.3261711379E-01  1.2625849351E-01  5.7189835484E-01
  1.2565217391E+04  4.5950625059E+00  6.2405897078E+00  1.3567712388E-01  1.2906047787E-01  5.7488096311E-01
  1.2662207358E+04  4.6403211198E+00  6.2305400162E+00  1.3879329924E-01  1.3190940057E-01  5.7784413829E-01
  1.2759197324E+04  4.6857172588E+00  6.2206115304E+00  1.4195631755E-01  1.3479648730E-01  5.8078784728E-01
  1.2856187291E+04  4.7313420494E+00  6.2108615331E+00  1.4516651613E-01  1.3772196914E-01  5.8371205172E-01
  1.2953177258E+04  4.7771615247E+00  6.2012638565E+00  1.4842423210E-01  1.4068593482E-01  5.8661672028E-01
  1.3050167224E+04  4.8231496444E+00  6.1917978039E+00  1.5172980239E-01  1.4368847481E-01  5.8950182846E-01
  1.3147157191E+04  4.8694017456E+00  6.1825204610E+00  1.5508356375E-01  1.4672982623E-01  5.9236735831E-01
  1.3244147157E+04  4.9157525349E+00  6.1733250563E+00  1.5848585274E-01  1.4980989807E-01  5.9521329825E-01
  1.3341137124E+04  4.9624436215E+00  6.1643562696E+00  1.6193700574E-01  1.5292911243E-01  5.9803964280E-01
  1.3438127090E+04  5.0092381955E+00  6.1554671514E+00  1.6543735894E-01  1.5608727212E-01  6.0084639240E-01
  1.3535117057E+04  5.0562920680E+00  6.1467472750E+00  1.6898724835E-01  1.5928468879E-01  6.0363355319E-01
  1.3632107023E+04  5.1035399211E+00  6.1381552016E+00  1.7258700980E-01  1.6252137839E-01  6.0640113676E-01
  1.3729096990E+04  5.1509511837E+00  6.1296704692E+00  1.7623850092E-01  1.6579874148E-01  6.0914916004E-01
  1.3826086957E+04  5.1986618733E+00  6.1213666493E+00  1.7994320320E-01  1.6911807542E-01  6.1187763667E-01
  1.3923076923E+04  5.2464763274E+00  6.1131320090E+00  1.8369891529E-01  1.7247693543E-01  6.1458655515E-01
  1.4020066890E+04  5.2946073587E+00  6.1050798461E+00  1.8750597393E-01  1.7587572935E-01  6.1727590352E-01
  1.4117056856E+04  5.3428962569E+00  6.0971216525E+00  1.9136471569E-01  1.7931430355E-01  6.1994567627E-01
  1.4214046823E+04  5.3913787961E+00  6.0892739972E+00  1.9527547699E-01  1.8279279245E-01  6.2259587412E-01
  1.4311036789E+04  5.4401518707E+00  6.0815844472E+00  1.9923859404E-01  1.8631143350E-01  6.2522650379E-01
  1.4408026756E+04  5.4890322664E+00  6.0739564482E+00  2.0325440290E-01  1.8987000128E-01  6.2783757781E-01
  1.4505016722E+04  5.5382447136E+00  6.0665007630E+00  2.0732323947E-01  1.9346894331E-01  6.3042911431E-01
  1.4602006689E+04  5.5876211913E+00  6.0591309165E+00  2.1144543947E-01  1.9710804566E-01  6.3300113682E-01
  1.4698996656E+04  5.6371753697E+00  6.0518517019E+00  2.1562133845E-01  2.0078739166E-01  6.3555367406E-01
  1.4795986622E+04  5.6870578169E+00  6.0447330548E+00  2.1985127180E-01  2.0450731484E-01  6.3808675976E-01
  1.4892976589E+04  5.7370514194E+00  6.0376692111E+00  2.2413557475E-01  2.0826747917E-01  6.4060042883E-01
  1.4989966555E+04  5.7873415123E+00  6.0307449720E+00  2.2847458235E-01  2.1206828053E-01  6.4309469990E-01
  1.5086956522E+04  5.8378528583E+00  6.0239229769E+00  2.3291152971E-01  2.1594651121E-01  6.4556959105E-01
  1.5183946488E+04  5.8884771401E+00  6.0171523413E+00  2.3741027398E-01  2.1987046848E-01  6.4802512611E-01
  1.5280936455E+04  5.9395054201E+00  6.0105631141E+00  2.4196630124E-01  2.2383658880E-01  6.5046133439E-01
  1.5377926421E+04  5.9906553935E+00  6.0040256342E+00  2.4657996793E-01  2.2784435552E-01  6.5287825048E-01
  1.5474916388E+04  6.0420032827E+00  5.9975732757E+00  2.5125163039E-01  2.3189396296E-01  6.5527591404E-01
  1.5571906355E+04  6.0936823705E+00  5.9912632246E+00  2.5598164491E-01  2.3598573962E-01  6.5765436960E-01
  1.5668896321E+04  6.1454784819E+00  5.9849989311E+00  2.6077036767E-01  2.4011926006E-01  6.6001366643E-01
  1.5765886288E+04  6.1975509632E+00  5.9788495543E+00  2.6561815477E-01  2.4429490664E-01  6.6235385825E-01
  1.5862876254E+04  6.2498817647E+00  5.9728049256E+00  2.7052536221E-01  2.4851267425E-01  6.6467500308E-01
  1.5959866221E+04  6.3023314052E+00  5.9668031984E+00  2.7549234595E-01  2.5277226195E-01  6.6697715440E-01
  1.6056856187E+04  6.3551223809E+00  5.9609394394E+00  2.8051946182E-01  2.5707421804E-01  6.6926035556E-01
  1.6153846154E+04  6.4081121854E+00  5.9551500822E+00  2.8560706559E-01  2.6141822392E-01  6.7152465359E-01
  1.6250836120E+04  6.4612226509E+00  5.9494009537E+00  2.9075551294E-01  2.6580409219E-01  6.7377010037E-01
  1.6347826087E+04  6.5147254457E+00  5.9438062461E+00  2.9596515947E-01  2.7023252189E-01  6.7599675236E-01
  1.6444816054E+04  6.5683814474E+00  5.9382626263E+00  3.0123636070E-01  2.7470291323E-01  6.7820467047E-01
  1.6541806020E+04  6.6221627673E+00  5.9327579140E+00  3.0656947206E-01  2.7921518304E-01  6.8039391985E-01
  1.6638795987E+04  6.6763673020E+00  5.9274152450E+00  3.1196484892E-01  2.8377013595E-01  6.8256456970E-01
  1.6735785953E+04  6.7306966010E+00  5.9221083982E+00  3.1742284654E-01  2.8836696011E-01  6.8471669312E-01
  1.6832775920E+04  6.7851713306E+00  5.9168456071E+00  3.2294382012E-01  2.9300569044E-01  6.8685036636E-01
  1.6929765886E+04  6.8400543321E+00  5.9117335134E+00  3.2852812476E-01  2.9768707115E-01  6.8896565532E-01
  1.7026755853E+04  6.8950639344E+00  5.9066550022E+00  3.3417611552E-01  3.0241027608E-01  6.9106262518E-01
  1.7123745819E+04  6.9502237851E+00  5.9016194044E+00  3.3988814733E-01  3.0717534115E-01  6.9314134732E-01
  1.7220735786E+04  7.0057921581E+00  5.8967298005E+00  3.4566457507E-01  3.1198303212E-01  6.9520189698E-01
  1.7317725753E+04  7.0614889757E+00  5.8918716755E+00  3.5150575355E-01  3.1683246693E-01  6.9724435316E-01
  1.7414715719E+04  7.1173250861E+00  5.8870491403E+00  3.5741203747E-01  3.2172363285E-01  6.9926879839E-01
  1.7511705686E+04  7.1735855739E+00  5.8823743940E+00  3.6338933306E-01  3.2666190405E-01  7.0127531859E-01
  1.7608695652E+04  7.2299763570E+00  5.8777291492E+00  3.6947360754E-01  3.3167495418E-01  7.0326400291E-01
  1.7705685619E+04  7.2864970170E+00  5.8731130587E+00  3.7562534179E-01  3.3673040374E-01  7.0523494354E-01
  1.7802675585E+04  7.3434378383E+00  5.8686389113E+00  3.8184490576E-01  3.4182920373E-01  7.0718909576E-01
  1.7899665552E+04  7.4005285392E+00  5.8641993662E+00  3.8813266939E-01  3.4697038333E-01  7.0912771997E-01
  1.7996655518E+04  7.4577509741E+00  5.8597871432E+00  3.9448900259E-01  3.5215381150E-01  7.1105087175E-01
  1.8093645485E+04  7.5153498598E+00  5.8554961004E+00  4.0091427522E-01  3.5738031876E-01  7.1295860198E-01
  1.8190635452E+04  7.5731458912E+00  5.8512554162E+00  4.0740885713E-01  3.6264920128E-01  7.1485096459E-01
  1.8287625418E+04  7.6310755094E+00  5.8470403296E+00  4.1397311813E-01  3.6796014782E-01  7.1672801640E-01
  1.8384615385E+04  7.6893210592E+00  5.8429198841E+00  4.2060742800E-01  3.7331378577E-01  7.1858981699E-01
  1.8481605351E+04  7.7478276856E+00  5.8388715936E+00  4.2731215647E-01  3.7870984457E-01  7.2043642863E-01
  1.8578595318E+04  7.8064697473E+00  5.8348472756E+00  4.3408767326E-01  3.8414774955E-01  7.2226791613E-01
  1.8675585284E+04  7.8653501572E+00  5.8308853834E+00  4.4093434807E-01  3.8962782913E-01  7.2408434672E-01
  1.8772575251E+04  7.9245725004E+00  5.8270233658E+00  4.4785859400E-01  3.9515514347E-01  7.2588578996E-01
  1.8869565217E+04  7.9839321233E+00  5.8231837885E+00  4.5485800742E-01  4.0072656326E-01  7.2767231762E-01
  1.8966555184E+04  8.0434351978E+00  5.8193688372E+00  4.6192992360E-01  4.0633963649E-01  7.2944400359E-01
  1.9063545151E+04  8.1033782379E+00  5.8156872947E+00  4.6907471469E-01  4.1199556600E-01  7.3120092374E-01
  1.9160535117E+04  8.1634603974E+00  5.8120267469E+00  4.7629275279E-01  4.1769294709E-01  7.3294315587E-01
  1.9257525084E+04  8.2236812924E+00  5.8083869686E+00  4.8358441001E-01  4.2343165913E-01  7.3467077957E-01
  1.9354515050E+04  8.2842421375E+00  5.8048409627E+00  4.9095005840E-01  4.2921251886E-01  7.3638387615E-01
  1.9451505017E+04  8.3450516673E+00  5.8013540288E+00  4.9839007002E-01  4.3503501094E-01  7.3808252805E-01
  1.9548494983E+04  8.4060017740E+00  5.7978865174E+00  5.0590481688E-01  4.4089850843E-01  7.3976680810E-01
  1.9645484950E+04  8.4671607894E+00  5.7944629049E+00  5.1349467097E-01  4.4680321358E-01  7.4143678005E-01
  1.9742474916E+04  8.5287023818E+00  5.7911444457E+00  5.2116000426E-01  4.5274987190E-01  7.4309250961E-01
  1.9839464883E+04  8.5903863877E+00  5.7878441359E+00  5.2890118870E-01  4.5873717909E-01  7.4473406493E-01
  1.9936454849E+04  8.6522124381E+00  5.7845617882E+00  5.3671859620E-01  4.6476498855E-01  7.4636151638E-01
  2.0033444816E+04  8.7144086307E+00  5.7813776456E+00  5.4462902948E-01  4.7084663070E-01  7.4797493654E-01
  2.0130434783E+04  8.7768314617E+00  5.7782396771E+00  5.5264844779E-01  4.7699273302E-01  7.4957440003E-01
  2.0227424749E+04  8.8393981783E+00  5.7751184822E+00  5.6074640427E-01  4.8317959247E-01  7.5115998341E-01
  2.0324414716E+04  8.9021667365E+00  5.7720339877E+00  5.6892328396E-01  4.8940736849E-01  7.5273176513E-01
  2.0421404682E+04  8.9653353166E+00  5.7690534723E+00  5.7717947189E-01  4.9567701825E-01  7.5428982533E-01
  2.0518394649E+04  9.0286496418E+00  5.7660886073E+00  5.8551535313E-01  5.0198699793E-01  7.5583424584E-01
  2.0615384615E+04  9.0921093571E+00  5.7631392371E+00  5.9393131274E-01  5.0833713567E-01  7.5736511004E-01
  2.0712374582E+04  9.1558974587E+00  5.7602664178E+00  6.0242773580E-01  5.1472832393E-01  7.5888250276E-01
  2.0809364548E+04  9.2199670242E+00  5.7574532023E+00  6.1100500742E-01  5.2116015410E-01  7.6038651020E-01
  2.0906354515E+04  9.2841838701E+00  5.7546544328E+00  6.1966351271E-01  5.2763167547E-01  7.6187721986E-01
  2.1003344482E+04  9.3485476493E+00  5.7518699686E+00  6.2840363678E-01  5.3414270212E-01  7.6335472392E-01
  2.1100334448E+04  9.4133497674E+00  5.7491940736E+00  6.3722576478E-01  5.4069484191E-01  7.6481913302E-01
  2.1197324415E+04  9.4783313655E+00  5.7465415040E+00  6.4613028186E-01  5.4728636183E-01  7.6627052996E-01
  2.1294314381E+04  9.5434618179E+00  5.7439022593E+00  6.5511757318E-01  5.5391688211E-01  7.6770899326E-01
  2.1391304348E+04  9.6087963457E+00  5.7412937724E+00  6.6418802392E-01  5.6058655983E-01  7.6913460298E-01
  2.1488294314E+04  9.6745502787E+00  5.7387832079E+00  6.7334201927E-01  5.6729660938E-01  7.7054744070E-01
  2.1585284281E+04  9.7404550117E+00  5.7362850400E+00  6.8257994444E-01  5.7404512741E-01  7.7194758932E-01
  2.1682274247E+04  9.8065102107E+00  5.7337991522E+00  6.9190218463E-01  5.8083190503E-01  7.7333513307E-01
  2.1779264214E+04  9.8728380519E+00  5.7313629895E+00  7.0130912508E-01  5.8765755877E-01  7.7471015738E-01
  2.1876254181E+04  9.9395246309E+00  5.7290019459E+00  7.1080115102E-01  5.9452249831E-01  7.7607274879E-01
  2.1973244147E+04  1.0006363652E+01  5.7266523132E+00  7.2037864772E-01  6.0142513047E-01  7.7742299487E-01
  2.2070234114E+04  1.0073354788E+01  5.7243139863E+00  7.3004200043E-01  6.0836523388E-01  7.7876098418E-01
  2.2167224080E+04  1.0140667058E+01  5.7220372482E+00  7.3979159442E-01  6.1534379006E-01  7.8008680613E-01
  2.2264214047E+04  1.0208297446E+01  5.7198201422E+00  7.4962781500E-01  6.2236059816E-01  7.8140055098E-01
  2.2361204013E+04  1.0276081954E+01  5.7176135271E+00  7.5955144636E-01  6.2941455118E-01  7.8270230970E-01
  2.2458193980E+04  1.0344020265E+01  5.7154173080E+00  7.6963969501E-01  6.3655796481E-01  7.8399217345E-01
  2.2555183946E+04  1.0412306887E+01  5.7132876751E+00  7.7981744115E-01  6.4374000252E-01  7.8527022775E-01
  2.2652173913E+04  1.0480892288E+01  5.7112092509E+00  7.9008508689E-01  6.5096010366E-01  7.8653655499E-01
  2.2749163880E+04  1.0549633526E+01  5.7091404582E+00  8.0044303439E-01  6.5821696871E-01  7.8779123861E-01
  2.2846153846E+04  1.0618530289E+01  5.7070812116E+00  8.1089168587E-01  6.6551034971E-01  7.8903436300E-01
  2.2943143813E+04  1.0687779967E+01  5.7050869027E+00  8.2143144360E-01  6.7284155069E-01  7.9026601345E-01
  2.3040133779E+04  1.0757331624E+01  5.7031422078E+00  8.3206270991E-01  6.8020997160E-01  7.9148627606E-01
  2.3137123746E+04  1.0827040872E+01  5.7012063408E+00  8.4278588718E-01  6.8761423693E-01  7.9269523770E-01
  2.3234113712E+04  1.0896907405E+01  5.6992792250E+00  8.5360137784E-01  6.9505408763E-01  7.9389298589E-01
  2.3331103679E+04  1.0967107593E+01  5.6974089593E+00  8.6450958437E-01  7.0253071909E-01  7.9507960878E-01
  2.3428093645E+04  1.1037636786E+01  5.6955933221E+00  8.7551090931E-01  7.1004388215E-01  7.9625519506E-01
  2.3525083612E+04  1.1108325357E+01  5.6937857611E+00  8.8660575525E-01  7.1759193001E-01  7.9741983390E-01
  2.3622073579E+04  1.1179173008E+01  5.6919862071E+00  8.9779452483E-01  7.2517459324E-01  7.9857361491E-01
  2.3719063545E+04  1.1250309887E+01  5.6902291692E+00  9.0907762074E-01  7.3279272646E-01  7.9971662805E-01
  2.3816053512E+04  1.1321827922E+01  5.6885381789E+00  9.2045544572E-01  7.4044689965E-01  8.0084896329E-01
  2.3913043478E+04  1.1393507160E+01  5.6868545606E+00  9.3192840258E-01  7.4813496073E-01  8.0197070604E-01
  2.4010033445E+04  1.1465347309E+01  5.6851782525E+00  9.4349689415E-01  7.5585663063E-01  8.0308193885E-01
  2.4107023411E+04  1.1537405753E+01  5.6835240607E+00  9.5516132334E-01  7.6361214862E-01  8.0418274478E-01
  2.4204013378E+04  1.1609923962E+01  5.6819535486E+00  9.6692209308E-01  7.7140345647E-01  8.0527320748E-01
  2.4301003344E+04  1.1682605235E+01  5.6803897486E+00  9.7877960637E-01  7.7922762087E-01  8.0635341109E-01
  2.4397993311E+04  1.1755449285E+01  5.6788326055E+00  9.9073426627E-01  7.8708435384E-01  8.0742344016E-01
  2.4494983278E+04  1.1828455829E+01  5.6772820645E+00  1.0027864759E+00  7.9497336493E-01  8.0848337965E-01
  2.4591973244E+04  1.1901942572E+01  5.6758173050E+00  1.0149366383E+00  8.0289739392E-01  8.0953331483E-01
  2.4688963211E+04  1.1975637268E+01  5.6743694208E+00  1.0271851568E+00  8.1085362224E-01  8.1057333122E-01
  2.4785953177E+04  1.2049496644E+01  5.6729275806E+00  1.0395324345E+00  8.1884134814E-01  8.1160351459E-01
  2.4882943144E+04  1.2123520420E+01  5.6714917356E+00  1.0519788749E+00  8.2686027321E-01  8.1262395086E-01
  2.4979933110E+04  1.2197898759E+01  5.6701083291E+00  1.0645248811E+00  8.3491199705E-01  8.1363472608E-01
  2.5076923077E+04  1.2272615690E+01  5.6687726254E+00  1.0772316612E+00  8.4303335877E-01  8.1463592633E-01
  2.5173913043E+04  1.2347499216E+01  5.6674423907E+00  1.0900560538E+00  8.5119530565E-01  8.1562763507E-01
  2.5270903010E+04  1.2422549064E+01  5.6661175816E+00  1.1029827721E+00  8.5938786770E-01  8.1660993199E-01
  2.5367892977E+04  1.2497797629E+01  5.6648063350E+00  1.1160122334E+00  8.6761108225E-01  8.1758289687E-01
  2.5464882943E+04  1.2573528176E+01  5.6635790142E+00  1.1291448551E+00  8.7586770952E-01  8.1854660974E-01
  2.5561872910E+04  1.2649427104E+01  5.6623566236E+00  1.1423810548E+00  8.8415411886E-01  8.1950115086E-01
  2.5658862876E+04  1.2725494145E+01  5.6611391246E+00  1.1557212499E+00  8.9246999364E-01  8.2044660070E-01
  2.5755852843E+04  1.2801729035E+01  5.6599264794E+00  1.1691658582E+00  9.0081501528E-01  8.2138303985E-01
  2.5852842809E+04  1.2878322635E+01  5.6587686049E+00  1.1827152974E+00  9.0919110552E-01  8.2231054898E-01
  2.5949832776E+04  1.2955220172E+01  5.6576503857E+00  1.1963699853E+00  9.1759736419E-01  8.2322920884E-01
  2.6046822742E+04  1.3032287424E+01  5.6565365579E+00  1.2101303397E+00  9.2603191289E-01  8.2413910017E-01
  2.6143812709E+04  1.3109524133E+01  5.6554270879E+00  1.2239967786E+00  9.3449442727E-01  8.2504030371E-01
  2.6240802676E+04  1.3186930677E+01  5.6543221192E+00  1.2379697202E+00  9.4298458944E-01  8.2593290011E-01
  2.6337792642E+04  1.3264808830E+01  5.6533045820E+00  1.2520495825E+00  9.5150597640E-01  8.2681696873E-01
  2.6434782609E+04  1.3342858109E+01  5.6522909671E+00  1.2662367836E+00  9.6005445534E-01  8.2769258418E-01
  2.6531772575E+04  1.3421078261E+01  5.6512812451E+00  1.2805317420E+00  9.6862969685E-01  8.2855982261E-01
  2.6628762542E+04  1.3499469032E+01  5.6502753870E+00  1.2949348759E+00  9.7723137006E-01  8.2941876048E-01
  2.6725752508E+04  1.3578124620E+01  5.6493010140E+00  1.3094466039E+00  9.8586048264E-01  8.3026947424E-01
  2.6822742475E+04  1.3657136584E+01  5.6483843231E+00  1.3240673443E+00  9.9451805511E-01  8.3111204027E-01
  2.6919732441E+04  1.3736320645E+01  5.6474710889E+00  1.3387975158E+00  1.0032011681E+00  8.3194653467E-01
  2.7016722408E+04  1.3815676555E+01  5.6465612859E+00  1.3536375371E+00  1.0119094868E+00  8.3277303191E-01
  2.7113712375E+04  1.3895204070E+01  5.6456548891E+00  1.3685878268E+00  1.0206426749E+00  8.3359160621E-01
  2.7210702341E+04  1.3975054838E+01  5.6447994270E+00  1.3836488039E+00  1.0294028008E+00  8.3440226822E-01
  2.7307692308E+04  1.4055182142E+01  5.6439795769E+00  1.3988208871E+00  1.0381888514E+00  8.3520541707E-01
  2.7404682274E+04  1.4135482333E+01  5.6431627519E+00  1.4141046600E+00  1.0469989566E+00  8.3600297333E-01
  2.7501672241E+04  1.4215955169E+01  5.6423489303E+00  1.4295010800E+00  1.0558330694E+00  8.3679572949E-01
  2.7598662207E+04  1.4296600411E+01  5.6415380905E+00  1.4450098789E+00  1.0646904710E+00  8.3758371790E-01
  2.7695652174E+04  1.4377595668E+01  5.6407904370E+00  1.4606314761E+00  1.0735739934E+00  8.3836697464E-01
  2.7792642140E+04  1.4458818177E+01  5.6400636575E+00  1.4763662908E+00  1.0824811764E+00  8.3914553583E-01
  2.7889632107E+04  1.4540214179E+01  5.6393395031E+00  1.4922147427E+00  1.0914107324E+00  8.3991943723E-01
  2.7986622074E+04  1.4621783439E+01  5.6386179551E+00  1.5081772511E+00  1.1003623188E+00  8.4068871427E-01
  2.8083612040E+04  1.4703525724E+01  5.6378989952E+00  1.5242542357E+00  1.1093355927E+00  8.4145340202E-01
  2.8180602007E+04  1.4785618414E+01  5.6372485907E+00  1.5404461163E+00  1.1183338231E+00  8.4221353524E-01
  2.8277591973E+04  1.4867914354E+01  5.6366113294E+00  1.5567533125E+00  1.1273537483E+00  8.4296914833E-01
  2.8374581940E+04  1.4950384209E+01  5.6359763219E+00  1.5731762441E+00  1.1363944379E+00  8.4372027538E-01
  2.8471571906E+04  1.5033027752E+01  5.6353435524E+00  1.5897153311E+00  1.1454555475E+00  8.4446695015E-01
  2.8568561873E+04  1.5115844754E+01  5.6347130054E+00  1.6063709935E+00  1.1545367322E+00  8.4520920607E-01
  2.8665551839E+04  1.5198991938E+01  5.6341497966E+00  1.6231436512E+00  1.1636413450E+00  8.4594707627E-01
  2.8762541806E+04  1.5282337926E+01  5.6335987025E+00  1.6400337244E+00  1.1727660213E+00  8.4668059357E-01
  2.8859531773E+04  1.5365858069E+01  5.6330495172E+00  1.6570416333E+00  1.1819098458E+00  8.4740979046E-01
  2.8956521739E+04  1.5449552143E+01  5.6325022278E+00  1.6741677981E+00  1.1910724734E+00  8.4813469914E-01
  2.9053511706E+04  1.5533419926E+01  5.6319568214E+00  1.6914126391E+00  1.2002535586E+00  8.4885535150E-01
  2.9150501672E+04  1.5617583263E+01  5.6314712283E+00  1.7087765768E+00  1.2094561606E+00  8.4957177916E-01
  2.9247491639E+04  1.5701954345E+01  5.6310031367E+00  1.7262600316E+00  1.2186775585E+00  8.5028401340E-01
  2.9344481605E+04  1.5786499634E+01  5.6305366335E+00  1.7438634240E+00  1.2279164864E+00  8.5099208525E-01
  2.9441471572E+04  1.5871218914E+01  5.6300717082E+00  1.7615871747E+00  1.2371725995E+00  8.5169602544E-01
  2.9538461538E+04  1.5956111967E+01  5.6296083501E+00  1.7794317042E+00  1.2464455528E+00  8.5239586441E-01
  2.9635451505E+04  1.6041258224E+01  5.6291912353E+00  1.7973974335E+00  1.2557377133E+00  8.5309163233E-01
  2.9732441472E+04  1.6126627937E+01  5.6288031545E+00  1.8154847832E+00  1.2650477922E+00  8.5378335987E-01
  2.9829431438E+04  1.6212171728E+01  5.6284163643E+00  1.8336941742E+00  1.2743737860E+00  8.5447107877E-01
  2.9926421405E+04  1.6297889384E+01  5.6280308560E+00  1.8520260275E+00  1.2837153513E+00  8.5515482011E-01
  3.0023411371E+04  1.6383780691E+01  5.6276466215E+00  1.8705158889E+00  1.2930889308E+00  8.5583461467E-01
  3.0120401338E+04  1.6469886299E+01  5.6272892432E+00  1.8892409595E+00  1.3025320370E+00  8.5651049290E-01
  3.0217391304E+04  1.6556238068E+01  5.6269782892E+00  1.9080922061E+00  1.3119930520E+00  8.5718248490E-01
  3.0314381271E+04  1.6642763680E+01  5.6266683488E+00  1.9270700683E+00  1.3214687803E+00  8.5785062051E-01
  3.0411371237E+04  1.6729462928E+01  5.6263594155E+00  1.9461749858E+00  1.3309588731E+00  8.5851492921E-01
  3.0508361204E+04  1.6816335604E+01  5.6260514827E+00  1.9654073982E+00  1.3404629816E+00  8.5917544019E-01
  3.0605351171E+04  1.6903383211E+01  5.6257454904E+00  1.9847677454E+00  1.3499808233E+00  8.5983218236E-01
  3.0702341137E+04  1.6990727750E+01  5.6255088035E+00  2.0042564674E+00  1.3595167700E+00  8.6048518430E-01
  3.0799331104E+04  1.7078245997E+01  5.6252728730E+00  2.0238740041E+00  1.3690658028E+00  8.6113447432E-01
  3.0896321070E+04  1.7165937749E+01  5.6250376942E+00  2.0436207958E+00  1.3786275758E+00  8.6178008043E-01
  3.0993311037E+04  1.7253802803E+01  5.6248032622E+00  2.0634972827E+00  1.3882017440E+00  8.6242203037E-01
  3.1090301003E+04  1.7341840959E+01  5.6245695725E+00  2.0835039051E+00  1.3977879628E+00  8.6306035158E-01
  3.1187290970E+04  1.7430133590E+01  5.6243755291E+00  2.1036411036E+00  1.4073888564E+00  8.6369507124E-01
