#[MATERIAL DEFINITION FOR MC-GPU: interaction mean free path and sampling data from PENELOPE 2006]
#[MATERIAL NAME]
# MATERIAL5                                                     
#[NOMINAL DENSITY (g/cm^3)]
#   1.00000000
#[NUMBER OF DATA VALUES]
#   1495
#[MEAN FREE PATHS (cm) (ie, average distance between interactions)]
#[Energy (eV)     | Rayleigh        | Compton         | Photoelectric   | TOTAL (+pair prod) (cm) | Rayleigh: max cumul prob F^2]
  5.0000000000E+03  2.2588423702E+00  7.4633408569E+00  3.3054967638E-02  3.2436642043E-02  3.4127879555E-01
  5.0969899666E+03  2.3089832942E+00  7.4062702875E+00  3.5044238804E-02  3.4360160823E-02  3.4618425691E-01
  5.1939799331E+03  2.3595939992E+00  7.3516479796E+00  3.7112209647E-02  3.6356846473E-02  3.5100395057E-01
  5.2909698997E+03  2.4106632447E+00  7.2993251567E+00  3.9260430021E-02  3.8427897644E-02  3.5574237542E-01
  5.3879598662E+03  2.4621796542E+00  7.2491638486E+00  4.1490450506E-02  4.0574497974E-02  3.6040374773E-01
  5.4849498328E+03  2.5141317520E+00  7.2010359553E+00  4.3804886715E-02  4.2798831621E-02  3.6499218324E-01
  5.5819397993E+03  2.5665079997E+00  7.1548224080E+00  4.6217200667E-02  4.5113393134E-02  3.6951170772E-01
  5.6789297659E+03  2.6192968342E+00  7.1104124150E+00  4.8717240735E-02  4.7508116710E-02  3.7396610853E-01
  5.7759197324E+03  2.6724867037E+00  7.0677027836E+00  5.1306610871E-02  4.9984160731E-02  3.7835895417E-01
  5.8729096990E+03  2.7260661060E+00  7.0265973084E+00  5.3986916208E-02  5.2542666081E-02  3.8269362724E-01
  5.9698996656E+03  2.7800236318E+00  6.9870062158E+00  5.6759763040E-02  5.5184755652E-02  3.8697343061E-01
  6.0668896321E+03  2.8343483948E+00  6.9488455177E+00  5.9638611560E-02  5.7922714602E-02  3.9120147174E-01
  6.1638795987E+03  2.8890307609E+00  6.9120363217E+00  6.2619762321E-02  6.0752560820E-02  3.9538068584E-01
  6.2608695652E+03  2.9440623057E+00  6.8765044949E+00  6.5699761025E-02  6.3670563566E-02  3.9951386722E-01
  6.3578595318E+03  2.9994348350E+00  6.8421806829E+00  6.8880271717E-02  6.6677808844E-02  4.0360368544E-01
  6.4548494983E+03  3.0551509828E+00  6.8090327704E+00  7.2162960022E-02  6.9775371149E-02  4.0765263509E-01
  6.5518394649E+03  3.1112043217E+00  6.7770054537E+00  7.5549589638E-02  7.2964388378E-02  4.1166301982E-01
  6.6488294314E+03  3.1675755797E+00  6.7460071075E+00  7.9041777096E-02  7.6245825680E-02  4.1563704792E-01
  6.7458193980E+03  3.2242568735E+00  6.7159837798E+00  8.2641159237E-02  7.9620652834E-02  4.1957684616E-01
  6.8428093645E+03  3.2812405661E+00  6.6868849051E+00  8.6349408149E-02  8.3089848680E-02  4.2348441639E-01
  6.9397993311E+03  3.3385192973E+00  6.6586630779E+00  9.0168197382E-02  8.6654369088E-02  4.2736153721E-01
  7.0367892977E+03  3.3960869792E+00  6.6312770080E+00  9.4112119603E-02  9.0327047352E-02  4.3120990299E-01
  7.1337792642E+03  3.4539655240E+00  6.6047768057E+00  9.8192778699E-02  9.4117858342E-02  4.3503116013E-01
  7.2307692308E+03  3.5121210022E+00  6.5790286809E+00  1.0239154633E-01  9.8008874985E-02  4.3882687686E-01
  7.3277591973E+03  3.5705488159E+00  6.5539956186E+00  1.0671018258E-01  1.0200100899E-01  4.4259841130E-01
  7.4247491639E+03  3.6292445350E+00  6.5296428726E+00  1.1115044961E-01  1.0609514621E-01  4.4634703916E-01
  7.5217391304E+03  3.6882194038E+00  6.5059863580E+00  1.1571411169E-01  1.1029217400E-01  4.5007401063E-01
  7.6187290970E+03  3.7474732224E+00  6.4830076580E+00  1.2040293507E-01  1.1459293812E-01  4.5378051579E-01
  7.7157190635E+03  3.8069819548E+00  6.4606153259E+00  1.2521868805E-01  1.1899821081E-01  4.5746756038E-01
  7.8127090301E+03  3.8667416623E+00  6.4387820519E+00  1.3016314091E-01  1.2350877005E-01  4.6113609128E-01
  7.9096989967E+03  3.9267707180E+00  6.4175506182E+00  1.3523806589E-01  1.2812541655E-01  4.6478704367E-01
  8.0066889632E+03  3.9870579662E+00  6.3968742606E+00  1.4044737389E-01  1.3285077499E-01  4.6842128197E-01
  8.1036789298E+03  4.0475847872E+00  6.3766818368E+00  1.4582060223E-01  1.3771024566E-01  4.7203952255E-01
  8.2006688963E+03  4.1083549045E+00  6.3569720766E+00  1.5133163741E-01  1.4267945404E-01  4.7564245816E-01
  8.2976588629E+03  4.1693944782E+00  6.3378052379E+00  1.5698231532E-01  1.4775914536E-01  4.7923077256E-01
  8.3946488294E+03  4.2306667274E+00  6.3190599847E+00  1.6277447412E-01  1.5294986426E-01  4.8280504723E-01
  8.4916387960E+03  4.2921704432E+00  6.3007225137E+00  1.6871009879E-01  1.5825234293E-01  4.8636578062E-01
  8.5886287625E+03  4.3539470408E+00  6.2828915019E+00  1.7479302622E-01  1.6366903858E-01  4.8991347007E-01
  8.6856187291E+03  4.4159498612E+00  6.2654285835E+00  1.8102311347E-01  1.6919860255E-01  4.9344857874E-01
  8.7826086957E+03  4.4781818516E+00  6.2483328749E+00  1.8740221236E-01  1.7484156162E-01  4.9697146534E-01
  8.8795986622E+03  4.5406805398E+00  6.2316868923E+00  1.9393217693E-01  1.8059853805E-01  5.0048247288E-01
  8.9765886288E+03  4.6033989899E+00  6.2153629063E+00  2.0061486340E-01  1.8646982524E-01  5.0398195832E-01
  9.0735785953E+03  4.6663539993E+00  6.1993935464E+00  2.0747680987E-01  1.9247714836E-01  5.0747020593E-01
  9.1705685619E+03  4.7295612649E+00  6.1838020649E+00  2.1450467925E-01  1.9860768564E-01  5.1094738260E-01
  9.2675585284E+03  4.7929829696E+00  6.1684934537E+00  2.2169274900E-01  2.0485506857E-01  5.1441365739E-01
  9.3645484950E+03  4.8566622667E+00  6.1535513731E+00  2.2904293185E-01  2.1121981843E-01  5.1786920573E-01
  9.4615384615E+03  4.9205709241E+00  6.1389038000E+00  2.3655714298E-01  2.1770212659E-01  5.2131420904E-01
  9.5585284281E+03  4.9847033699E+00  6.1245333003E+00  2.4423729999E-01  2.2430224197E-01  5.2474885061E-01
  9.6555183946E+03  5.0490993058E+00  6.1105048320E+00  2.5208532287E-01  2.3102058653E-01  5.2817322105E-01
  9.7525083612E+03  5.1137021620E+00  6.0967043920E+00  2.6010313400E-01  2.3785710454E-01  5.3158732919E-01
  9.8494983278E+03  5.1785695027E+00  6.0832275656E+00  2.6829265810E-01  2.4481224420E-01  5.3499119030E-01
  9.9464882943E+03  5.2436575924E+00  6.0699879026E+00  2.7665582222E-01  2.5188592882E-01  5.3838482697E-01
  1.0043478261E+04  5.3089830519E+00  6.0570078669E+00  2.8521647706E-01  2.5909643474E-01  5.4176826880E-01
  1.0140468227E+04  5.3745578676E+00  6.0442949947E+00  2.9398343744E-01  2.6644929696E-01  5.4514154866E-01
  1.0237458194E+04  5.4403454617E+00  6.0317877614E+00  3.0293240016E-01  2.7392256946E-01  5.4850463513E-01
  1.0334448161E+04  5.5064125071E+00  6.0195718455E+00  3.1206536057E-01  2.8151662164E-01  5.5185744513E-01
  1.0431438127E+04  5.5726756160E+00  6.0075244079E+00  3.2138431664E-01  2.8923096703E-01  5.5519990261E-01
  1.0528428094E+04  5.6392353035E+00  5.9957699268E+00  3.3089126899E-01  2.9706611157E-01  5.5853193905E-01
  1.0625418060E+04  5.7059956529E+00  5.9841779555E+00  3.4058822081E-01  3.0502140649E-01  5.6185349319E-01
  1.0722408027E+04  5.7730401592E+00  5.9728437706E+00  3.5047717788E-01  3.1309721092E-01  5.6516449916E-01
  1.0819397993E+04  5.8403034411E+00  5.9616824882E+00  3.6056014855E-01  3.2129296291E-01  5.6846483407E-01
  1.0916387960E+04  5.9078408193E+00  5.9507506444E+00  3.7083914369E-01  3.2960880145E-01  5.7175436357E-01
  1.1013377926E+04  5.9756121819E+00  5.9399967128E+00  3.8131617667E-01  3.3804423393E-01  5.7503296124E-01
  1.1110367893E+04  6.0436508036E+00  5.9294503403E+00  3.9199326337E-01  3.4659920447E-01  5.7830050820E-01
  1.1207357860E+04  6.1119348014E+00  5.9190817528E+00  4.0288808707E-01  3.5528543945E-01  5.8155689120E-01
  1.1304347826E+04  6.1804833403E+00  5.9089049832E+00  4.1402916191E-01  3.6412302489E-01  5.8480196932E-01
  1.1401337793E+04  6.2492838849E+00  5.8989009659E+00  4.2537900903E-01  3.7308057072E-01  5.8803557833E-01
  1.1498327759E+04  6.3183513015E+00  5.8890788573E+00  4.3693970980E-01  3.8215777959E-01  5.9125756113E-01
  1.1595317726E+04  6.3876716143E+00  5.8794197799E+00  4.4871334834E-01  3.9135410274E-01  5.9446776830E-01
  1.1692307692E+04  6.4572671414E+00  5.8699382477E+00  4.6070201153E-01  4.0066923247E-01  5.9766605882E-01
  1.1789297659E+04  6.5271097059E+00  5.8606055417E+00  4.7290778893E-01  4.1010244030E-01  6.0085229494E-01
  1.1886287625E+04  6.5972428342E+00  5.8514512962E+00  4.8533277284E-01  4.1965351779E-01  6.0402629467E-01
  1.1983277592E+04  6.6676093500E+00  5.8424273803E+00  4.9797905821E-01  4.2932143475E-01  6.0718787362E-01
  1.2080267559E+04  6.7382898151E+00  5.8335878698E+00  5.1084874267E-01  4.3910622126E-01  6.1033685544E-01
  1.2177257525E+04  6.8091811523E+00  5.8248560817E+00  5.2394392648E-01  4.4900639223E-01  6.1347307167E-01
  1.2274247492E+04  6.8804189211E+00  5.8163194400E+00  5.3726671251E-01  4.5902238886E-01  6.1659636155E-01
  1.2371237458E+04  6.9518350755E+00  5.8078639745E+00  5.5081920626E-01  4.6915208287E-01  6.1970657180E-01
  1.2468227425E+04  7.0236403636E+00  5.7996189886E+00  5.6460351580E-01  4.7939653685E-01  6.2280355646E-01
  1.2565217391E+04  7.0956222958E+00  5.7914494615E+00  5.7865071044E-01  4.8977387328E-01  6.2588717674E-01
  1.2662207358E+04  7.1679646586E+00  5.7834614137E+00  5.9294954877E-01  5.0027500782E-01  6.2895730439E-01
  1.2759197324E+04  7.2405267445E+00  5.7755696875E+00  6.0748836172E-01  5.1088787309E-01  6.3201379694E-01
  1.2856187291E+04  7.3134034282E+00  5.7678238104E+00  6.2226930172E-01  5.2161245854E-01  6.3505647586E-01
  1.2953177258E+04  7.3865593445E+00  5.7602014528E+00  6.3729452388E-01  5.3244754660E-01  6.3808516865E-01
  1.3050167224E+04  7.4599689234E+00  5.7526850762E+00  6.5256618601E-01  5.4339193968E-01  6.4109971076E-01
  1.3147157191E+04  7.5337327291E+00  5.7453241371E+00  6.6808644857E-01  5.5444568202E-01  6.4409994546E-01
  1.3244147157E+04  7.6076756887E+00  5.7380266176E+00  6.8385747469E-01  5.6560601698E-01  6.4708572364E-01
  1.3341137124E+04  7.6820584548E+00  5.7309179568E+00  6.9988143011E-01  5.7687459461E-01  6.5005690369E-01
  1.3438127090E+04  7.7566250598E+00  5.7238710701E+00  7.1616048321E-01  5.8824772976E-01  6.5301335129E-01
  1.3535117057E+04  7.8315469058E+00  5.7169639014E+00  7.3269680493E-01  5.9972614135E-01  6.5595493495E-01
  1.3632107023E+04  7.9067518548E+00  5.7101606244E+00  7.4949256883E-01  6.1130798060E-01  6.5888150399E-01
  1.3729096990E+04  7.9822072210E+00  5.7034436846E+00  7.6658192670E-01  6.2301285676E-01  6.6179290859E-01
  1.3826086957E+04  8.0580654372E+00  5.6968773318E+00  7.8399152601E-01  6.3485694088E-01  6.6468900703E-01
  1.3923076923E+04  8.1341067185E+00  5.6903643621E+00  8.0167045354E-01  6.4680117930E-01  6.6756966528E-01
  1.4020066890E+04  8.2105738385E+00  5.6840039023E+00  8.1962095148E-01  6.5884717474E-01  6.7043475683E-01
  1.4117056856E+04  8.2872854035E+00  5.6777187668E+00  8.3784526486E-01  6.7099158464E-01  6.7328416257E-01
  1.4214046823E+04  8.3642836855E+00  5.6715236644E+00  8.5634564151E-01  6.8323362366E-01  6.7611777061E-01
  1.4311036789E+04  8.4416810068E+00  5.6654604230E+00  8.7512433205E-01  6.9557342171E-01  6.7893547588E-01
  1.4408026756E+04  8.5192644789E+00  5.6594445520E+00  8.9418358991E-01  7.0800701510E-01  6.8173716845E-01
  1.4505016722E+04  8.5972988619E+00  5.6535735128E+00  9.1352567126E-01  7.2053643565E-01  6.8452273170E-01
  1.4602006689E+04  8.6755859175E+00  5.6477714458E+00  9.3315283504E-01  7.3315782749E-01  6.8729205602E-01
  1.4698996656E+04  8.7541427405E+00  5.6420427490E+00  9.5306734292E-01  7.4587000598E-01  6.9004503918E-01
  1.4795986622E+04  8.8331493442E+00  5.6364491880E+00  9.7327145928E-01  7.5867402880E-01  6.9278158612E-01
  1.4892976589E+04  8.9123457875E+00  5.6308976654E+00  9.9376745121E-01  7.7156497899E-01  6.9550160885E-01
  1.4989966555E+04  8.9919569323E+00  5.6254632175E+00  1.0145575885E+00  7.8454451685E-01  6.9820502626E-01
  1.5086956522E+04  9.0718913083E+00  5.6201129599E+00  1.0357013793E+00  7.9764392740E-01  7.0089176376E-01
  1.5183946488E+04  9.1520172018E+00  5.6148020274E+00  1.0571525942E+00  8.1083046913E-01  7.0356174451E-01
  1.5280936455E+04  9.2326958226E+00  5.6096455531E+00  1.0789070578E+00  8.2410405013E-01  7.0621488765E-01
  1.5377926421E+04  9.3135765810E+00  5.6045289690E+00  1.1009670872E+00  8.3745807266E-01  7.0885111875E-01
  1.5474916388E+04  9.3947566567E+00  5.5994818835E+00  1.1233350023E+00  8.5089242259E-01  7.1147037026E-01
  1.5571906355E+04  9.4764057993E+00  5.5945549917E+00  1.1460131257E+00  8.6440821668E-01  7.1407258129E-01
  1.5668896321E+04  9.5582509626E+00  5.5896629869E+00  1.1690037827E+00  8.7799971111E-01  7.1665769753E-01
  1.5765886288E+04  9.6405003271E+00  5.5848671316E+00  1.1923093017E+00  8.9166860370E-01  7.1922567102E-01
  1.5862876254E+04  9.7231302320E+00  5.5801585389E+00  1.2159320135E+00  9.0541302466E-01  7.2177645855E-01
  1.5959866221E+04  9.8059582080E+00  5.5754825819E+00  1.2398742518E+00  9.1922841879E-01  7.2431001226E-01
  1.6056856187E+04  9.8892824025E+00  5.5709234454E+00  1.2641383529E+00  9.3311812374E-01  7.2682628606E-01
  1.6153846154E+04  9.9729117390E+00  5.5664249957E+00  1.2887266561E+00  9.4707743114E-01  7.2932524025E-01
  1.6250836120E+04  1.0056741320E+01  5.5619570746E+00  1.3136415031E+00  9.6110290248E-01  7.3180684135E-01
  1.6347826087E+04  1.0141144291E+01  5.5576207927E+00  1.3388852384E+00  9.7519939607E-01  7.3427106199E-01
  1.6444816054E+04  1.0225792102E+01  5.5533248209E+00  1.3644602092E+00  9.8935963970E-01  7.3671788069E-01
  1.6541806020E+04  1.0310646435E+01  5.5490584500E+00  1.3903687652E+00  1.0035812488E+00  7.3914728264E-01
  1.6638795987E+04  1.0396126466E+01  5.5449307098E+00  1.4166132590E+00  1.0178701948E+00  7.4155925648E-01
  1.6735785953E+04  1.0481812159E+01  5.5408300047E+00  1.4431960457E+00  1.0322172753E+00  7.4395378063E-01
  1.6832775920E+04  1.0567733221E+01  5.5367636823E+00  1.4701194830E+00  1.0466213109E+00  7.4633083772E-01
  1.6929765886E+04  1.0654268365E+01  5.5328261831E+00  1.4973859311E+00  1.0610878273E+00  7.4869041626E-01
  1.7026755853E+04  1.0741011697E+01  5.5289139537E+00  1.5249977530E+00  1.0756075550E+00  7.5103251049E-01
  1.7123745819E+04  1.0827998040E+01  5.5250353091E+00  1.5529573143E+00  1.0901794287E+00  7.5335712018E-01
  1.7220735786E+04  1.0915608273E+01  5.5212815419E+00  1.5812669828E+00  1.1048093010E+00  7.5566425051E-01
  1.7317725753E+04  1.1003429345E+01  5.5175513862E+00  1.6099291294E+00  1.1194874533E+00  7.5795391184E-01
  1.7414715719E+04  1.1091477577E+01  5.5138485348E+00  1.6389461271E+00  1.1342124683E+00  7.6022611961E-01
  1.7511705686E+04  1.1180182867E+01  5.5102723623E+00  1.6683477665E+00  1.1490044852E+00  7.6248089412E-01
  1.7608695652E+04  1.1269101764E+01  5.5067182424E+00  1.6983125950E+00  1.1639352375E+00  7.6471826039E-01
  1.7705685619E+04  1.1358233600E+01  5.5031859188E+00  1.7286463425E+00  1.1789086992E+00  7.6693824804E-01
  1.7802675585E+04  1.1448023508E+01  5.4997754052E+00  1.7593514886E+00  1.1939326475E+00  7.6914089104E-01
  1.7899665552E+04  1.1538057063E+01  5.4963916453E+00  1.7904305156E+00  1.2089966729E+00  7.7132623795E-01
  1.7996655518E+04  1.1628306419E+01  5.4930282360E+00  1.8218859089E+00  1.2240984107E+00  7.7349433626E-01
  1.8093645485E+04  1.1719151982E+01  5.4897685608E+00  1.8537201567E+00  1.2392445973E+00  7.7564521293E-01
  1.8190635452E+04  1.1810315077E+01  5.4865498108E+00  1.8859357501E+00  1.2544274870E+00  7.7777889933E-01
  1.8287625418E+04  1.1901696893E+01  5.4833500495E+00  1.9185351831E+00  1.2696431398E+00  7.7989543135E-01
  1.8384615385E+04  1.1993584757E+01  5.4802307352E+00  1.9515209526E+00  1.2848964823E+00  7.8199484928E-01
  1.8481605351E+04  1.2085892293E+01  5.4771719337E+00  1.9848955581E+00  1.3001839854E+00  7.8407719285E-01
  1.8578595318E+04  1.2178421531E+01  5.4741308365E+00  2.0186615024E+00  1.3154993660E+00  7.8614247986E-01
  1.8675585284E+04  1.2271336854E+01  5.4711417504E+00  2.0528212907E+00  1.3308448597E+00  7.8819077929E-01
  1.8772575251E+04  1.2364803776E+01  5.4682381046E+00  2.0873802245E+00  1.3462240913E+00  7.9022217326E-01
  1.8869565217E+04  1.2458495441E+01  5.4653509511E+00  2.1223395487E+00  1.3616269978E+00  7.9223674619E-01
  1.8966555184E+04  1.2552421855E+01  5.4624822818E+00  2.1577003786E+00  1.3770515367E+00  7.9423458474E-01
  1.9063545151E+04  1.2647063145E+01  5.4597292494E+00  2.1934652324E+00  1.3925081692E+00  7.9621577781E-01
  1.9160535117E+04  1.2741932280E+01  5.4569915651E+00  2.2296366314E+00  1.4079831725E+00  7.9818041243E-01
  1.9257525084E+04  1.2837028651E+01  5.4542690664E+00  2.2662170995E+00  1.4234748585E+00  8.0012854439E-01
  1.9354515050E+04  1.2932682525E+01  5.4516270731E+00  2.3032091634E+00  1.4389902085E+00  8.0206022451E-01
  1.9451505017E+04  1.3028744203E+01  5.4490346131E+00  2.3406153526E+00  1.4545238952E+00  8.0397550754E-01
  1.9548494983E+04  1.3125036289E+01  5.4464562712E+00  2.3784381993E+00  1.4700696907E+00  8.0587445197E-01
  1.9645484950E+04  1.3221672491E+01  5.4439140081E+00  2.4166802383E+00  1.4856290447E+00  8.0775711990E-01
  1.9742474916E+04  1.3318941811E+01  5.4414627422E+00  2.4553440072E+00  1.5012083355E+00  8.0962357686E-01
  1.9839464883E+04  1.3416444771E+01  5.4390245849E+00  2.4944320465E+00  1.5167952823E+00  8.1147389167E-01
  1.9936454849E+04  1.3514180786E+01  5.4365994026E+00  2.5339468990E+00  1.5323882863E+00  8.1330813629E-01
  2.0033444816E+04  1.3612533583E+01  5.4342592266E+00  2.5739124021E+00  1.5480042893E+00  8.1512638569E-01
  2.0130434783E+04  1.3711261884E+01  5.4319574261E+00  2.6143513797E+00  1.5636421916E+00  8.1692871770E-01
  2.0227424749E+04  1.3810226536E+01  5.4296676572E+00  2.6552264874E+00  1.5792819684E+00  8.1871521089E-01
  2.0324414716E+04  1.3909524740E+01  5.4274078494E+00  2.6965402997E+00  1.5949249170E+00  8.2048591173E-01
  2.0421404682E+04  1.4009488858E+01  5.4252384750E+00  2.7382953939E+00  1.6105793623E+00  8.2224089370E-01
  2.0518394649E+04  1.4109692637E+01  5.4230802404E+00  2.7804943499E+00  1.6262315241E+00  8.2398024694E-01
  2.0615384615E+04  1.4210135514E+01  5.4209330363E+00  2.8231397504E+00  1.6418799037E+00  8.2570406365E-01
  2.0712374582E+04  1.4311121839E+01  5.4188517827E+00  2.8662341807E+00  1.6575322577E+00  8.2741243808E-01
  2.0809364548E+04  1.4412573682E+01  5.4168212906E+00  2.9097802288E+00  1.6731850006E+00  8.2910546633E-01
  2.0906354515E+04  1.4514267945E+01  5.4148009960E+00  2.9537804856E+00  1.6888300015E+00  8.3078324627E-01
  2.1003344482E+04  1.4616204080E+01  5.4127908006E+00  2.9982375443E+00  1.7044658294E+00  8.3244587742E-01
  2.1100334448E+04  1.4718862771E+01  5.4108755560E+00  3.0431540011E+00  1.7201062275E+00  8.3409346087E-01
  2.1197324415E+04  1.4821817156E+01  5.4089786030E+00  3.0885324546E+00  1.7357366394E+00  8.3572609913E-01
  2.1294314381E+04  1.4925016744E+01  5.4070909702E+00  3.1343755061E+00  1.7513541274E+00  8.3734389606E-01
  2.1391304348E+04  1.5028551891E+01  5.4052283843E+00  3.1806857596E+00  1.7669602777E+00  8.3894695835E-01
  2.1488294314E+04  1.5132774925E+01  5.4034513699E+00  3.2274658218E+00  1.7825653487E+00  8.4053537592E-01
  2.1585284281E+04  1.5237246498E+01  5.4016829386E+00  3.2747183017E+00  1.7981539067E+00  8.4210923049E-01
  2.1682274247E+04  1.5341966081E+01  5.3999230104E+00  3.3224458111E+00  1.8137246469E+00  8.4366860617E-01
  2.1779264214E+04  1.5447131927E+01  5.3982053631E+00  3.3706509645E+00  1.8292829583E+00  8.4521358931E-01
  2.1876254181E+04  1.5552883808E+01  5.3965529245E+00  3.4193363788E+00  1.8448324700E+00  8.4674426840E-01
  2.1973244147E+04  1.5658887045E+01  5.3949082984E+00  3.4685046734E+00  1.8603607962E+00  8.4826073390E-01
  2.2070234114E+04  1.5765141122E+01  5.3932714137E+00  3.5181584706E+00  1.8758667073E+00  8.4976307817E-01
  2.2167224080E+04  1.5871918050E+01  5.3916876590E+00  3.5683003949E+00  1.8913584563E+00  8.5125139531E-01
  2.2264214047E+04  1.5979213058E+01  5.3901553062E+00  3.6189330735E+00  1.9068349020E+00  8.5272578107E-01
  2.2361204013E+04  1.6086762260E+01  5.3886300470E+00  3.6700606180E+00  1.9222861968E+00  8.5418633266E-01
  2.2458193980E+04  1.6194565151E+01  5.3871118180E+00  3.7219712788E+00  1.9377885958E+00  8.5563314400E-01
  2.2555183946E+04  1.6302932205E+01  5.3856513805E+00  3.7743874569E+00  1.9532742684E+00  8.5706630325E-01
  2.2652173913E+04  1.6411784440E+01  5.3842348846E+00  3.8273118657E+00  1.9687394695E+00  8.5848589981E-01
  2.2749163880E+04  1.6520893728E+01  5.3828248109E+00  3.8807472213E+00  1.9841749768E+00  8.5989202487E-01
  2.2846153846E+04  1.6630259577E+01  5.3814211032E+00  3.9346962427E+00  1.9995796943E+00  8.6128477130E-01
  2.2943143813E+04  1.6740194471E+01  5.3800738441E+00  3.9891616516E+00  2.0149641128E+00  8.6266423355E-01
  2.3040133779E+04  1.6850617854E+01  5.3787692180E+00  4.0441461724E+00  2.0303244136E+00  8.6403050752E-01
  2.3137123746E+04  1.6961301169E+01  5.3774703868E+00  4.0996525322E+00  2.0456511828E+00  8.6538369046E-01
  2.3234113712E+04  1.7072243935E+01  5.3761773006E+00  4.1556834612E+00  2.0609434024E+00  8.6672388085E-01
  2.3331103679E+04  1.7183723069E+01  5.3749334870E+00  4.2122416919E+00  2.0762106257E+00  8.6805117835E-01
  2.3428093645E+04  1.7295731336E+01  5.3737369681E+00  4.2693299597E+00  2.0914517994E+00  8.6936568122E-01
  2.3525083612E+04  1.7408002433E+01  5.3725456573E+00  4.3269510027E+00  2.1066559111E+00  8.7066748146E-01
  2.3622073579E+04  1.7520535889E+01  5.3713595103E+00  4.3851075618E+00  2.1218220204E+00  8.7195667102E-01
  2.3719063545E+04  1.7633534364E+01  5.3702097874E+00  4.4438023805E+00  2.1369571462E+00  8.7323334328E-01
  2.3816053512E+04  1.7747141063E+01  5.3691178212E+00  4.5030382049E+00  2.1520661624E+00  8.7449759288E-01
  2.3913043478E+04  1.7861013509E+01  5.3680305136E+00  4.5628177841E+00  2.1671348897E+00  8.7574951565E-01
  2.4010033445E+04  1.7975151241E+01  5.3669478260E+00  4.6231438694E+00  2.1821624641E+00  8.7698920851E-01
  2.4107023411E+04  1.8089642871E+01  5.3658831913E+00  4.6840192151E+00  2.1971516131E+00  8.7821676935E-01
  2.4204013378E+04  1.8204861360E+01  5.3648924165E+00  4.7454465782E+00  2.2121166178E+00  8.7943229698E-01
  2.4301003344E+04  1.8320348529E+01  5.3639057859E+00  4.8074287181E+00  2.2270384043E+00  8.8063589097E-01
  2.4397993311E+04  1.8436103927E+01  5.3629232657E+00  4.8699683969E+00  2.2419161833E+00  8.8182764841E-01
  2.4494983278E+04  1.8552127109E+01  5.3619448225E+00  4.9330683795E+00  2.2567491838E+00  8.8300766126E-01
  2.4591973244E+04  1.8668904701E+01  5.3610422807E+00  4.9967314333E+00  2.2715567661E+00  8.8417602190E-01
  2.4688963211E+04  1.8786019772E+01  5.3601531782E+00  5.0609603283E+00  2.2863211970E+00  8.8533282375E-01
  2.4785953177E+04  1.8903406034E+01  5.3592677083E+00  5.1257578370E+00  2.3010390535E+00  8.8647816114E-01
  2.4882943144E+04  1.9021063049E+01  5.3583858420E+00  5.1911267348E+00  2.3157096367E+00  8.8761212926E-01
  2.4979933110E+04  1.9139281382E+01  5.3575497438E+00  5.2570697994E+00  2.3303445631E+00  8.8873482408E-01
  2.5076923077E+04  1.9258036687E+01  5.3567551415E+00  5.3237291772E+00  2.3449693521E+00  8.8984634220E-01
  2.5173913043E+04  1.9377066153E+01  5.3559637237E+00  5.3910080211E+00  2.3595522076E+00  8.9094678085E-01
  2.5270903010E+04  1.9496369353E+01  5.3551754655E+00  5.4588731857E+00  2.3740854269E+00  8.9203624266E-01
  2.5367892977E+04  1.9615997720E+01  5.3543977654E+00  5.5273274971E+00  2.3885706386E+00  8.9311482934E-01
  2.5464882943E+04  1.9736401019E+01  5.3536945009E+00  5.5963737840E+00  2.4030268458E+00  8.9418262673E-01
  2.5561872910E+04  1.9857081423E+01  5.3529940017E+00  5.6660148780E+00  2.4174320067E+00  8.9523972123E-01
  2.5658862876E+04  1.9978038513E+01  5.3522962465E+00  5.7362536131E+00  2.4317855537E+00  8.9628620020E-01
  2.5755852843E+04  2.0099271876E+01  5.3516012143E+00  5.8070928263E+00  2.4460869365E+00  8.9732215193E-01
  2.5852842809E+04  2.0221103064E+01  5.3509542071E+00  5.8785353568E+00  2.4603499698E+00  8.9834766548E-01
  2.5949832776E+04  2.0343439909E+01  5.3503415343E+00  5.9505840470E+00  2.4745701871E+00  8.9936283065E-01
  2.6046822742E+04  2.0466056350E+01  5.3497312169E+00  6.0232417414E+00  2.4887370663E+00  9.0036773785E-01
  2.6143812709E+04  2.0588951983E+01  5.3491232372E+00  6.0965112875E+00  2.5028501211E+00  9.0136247807E-01
  2.6240802676E+04  2.0712127552E+01  5.3485177375E+00  6.1703955352E+00  2.5169089333E+00  9.0234714279E-01
  2.6337792642E+04  2.0836125823E+01  5.3479899511E+00  6.2448973371E+00  2.5309379175E+00  9.0332182388E-01
  2.6434782609E+04  2.0960406557E+01  5.3474641564E+00  6.3200195485E+00  2.5449120805E+00  9.0428661358E-01
  2.6531772575E+04  2.1084969356E+01  5.3469403389E+00  6.3957650272E+00  2.5588309968E+00  9.0524160438E-01
  2.6628762542E+04  2.1209813828E+01  5.3464184837E+00  6.4721366335E+00  2.5726942559E+00  9.0618688901E-01
  2.6725752508E+04  2.1335122197E+01  5.3459236469E+00  6.5491372304E+00  2.5865100154E+00  9.0712256034E-01
  2.6822742475E+04  2.1461071652E+01  5.3454796007E+00  6.6267696836E+00  2.6002863126E+00  9.0804871134E-01
  2.6919732441E+04  2.1587306003E+01  5.3450371940E+00  6.7050368610E+00  2.6140061660E+00  9.0896543501E-01
  2.7016722408E+04  2.1713824862E+01  5.3445964148E+00  6.7839416336E+00  2.6276692221E+00  9.0987282248E-01
  2.7113712375E+04  2.1840627848E+01  5.3441572513E+00  6.8634868744E+00  2.6412751419E+00  9.1077095588E-01
  2.7210702341E+04  2.1968033113E+01  5.3437627957E+00  6.9436754592E+00  2.6548388913E+00  9.1165991527E-01
  2.7307692308E+04  2.2095942890E+01  5.3433991788E+00  7.0245102665E+00  2.6683555933E+00  9.1253978136E-01
  2.7404682274E+04  2.2224139968E+01  5.3430368756E+00  7.1059983287E+00  2.6818151584E+00  9.1341063538E-01
  2.7501672241E+04  2.2352623971E+01  5.3426758769E+00  7.1881561634E+00  2.6952191941E+00  9.1427255909E-01
  2.7598662207E+04  2.2481394526E+01  5.3423161734E+00  7.2709693236E+00  2.7085649251E+00  9.1512563461E-01
  2.7695652174E+04  2.2610860080E+01  5.3420123291E+00  7.3544407025E+00  2.7218721832E+00  9.1596994443E-01
  2.7792642140E+04  2.2740738700E+01  5.3417260227E+00  7.4385731954E+00  2.7351269924E+00  9.1680557133E-01
  2.7889632107E+04  2.2870906996E+01  5.3414407289E+00  7.5233697004E+00  2.7483230835E+00  9.1763259829E-01
  2.7986622074E+04  2.3001364605E+01  5.3411564407E+00  7.6088331180E+00  2.7614602318E+00  9.1845110848E-01
  2.8083612040E+04  2.3132111162E+01  5.3408731511E+00  7.6949663512E+00  2.7745382247E+00  9.1926118517E-01
  2.8180602007E+04  2.3263599842E+01  5.3406506259E+00  7.7817723055E+00  2.7875796583E+00  9.2006291168E-01
  2.8277591973E+04  2.3395455207E+01  5.3404386890E+00  7.8692538890E+00  2.8005655940E+00  9.2085637135E-01
  2.8374581940E+04  2.3527602595E+01  5.3402274862E+00  7.9574140122E+00  2.8134921254E+00  9.2164164750E-01
  2.8471571906E+04  2.3660041649E+01  5.3400170124E+00  8.0462555880E+00  2.8263590845E+00  9.2241882332E-01
  2.8568561873E+04  2.3792772017E+01  5.3398072626E+00  8.1357815319E+00  2.8391663150E+00  9.2318798192E-01
  2.8665551839E+04  2.3926246256E+01  5.3396572104E+00  8.2259947617E+00  2.8519369310E+00  9.2394920398E-01
  2.8762541806E+04  2.4060085653E+01  5.3395168668E+00  8.3168981980E+00  2.8646514578E+00  9.2470256310E-01
  2.8859531773E+04  2.4194219383E+01  5.3393769992E+00  8.4084947635E+00  2.8773061562E+00  9.2544813196E-01
  2.8956521739E+04  2.4328647103E+01  5.3392376046E+00  8.5007873834E+00  2.8899009105E+00  9.2618598354E-01
  2.9053511706E+04  2.4463368467E+01  5.3390986798E+00  8.5937789855E+00  2.9024356151E+00  9.2691619110E-01
  2.9150501672E+04  2.4598790450E+01  5.3390126725E+00  8.6874724999E+00  2.9149315288E+00  9.2763882812E-01
  2.9247491639E+04  2.4734620545E+01  5.3389412981E+00  8.7818708593E+00  2.9273733250E+00  9.2835396824E-01
  2.9344481605E+04  2.4870747251E+01  5.3388701610E+00  8.8769769985E+00  2.9397551068E+00  9.2906168523E-01
  2.9441471572E+04  2.5007170234E+01  5.3387992596E+00  8.9727938550E+00  2.9520768055E+00  9.2976205292E-01
  2.9538461538E+04  2.5143889158E+01  5.3387285923E+00  9.0693243687E+00  2.9643383618E+00  9.3045514516E-01
  2.9635451505E+04  2.5281220977E+01  5.3386985936E+00  9.1665714817E+00  2.9765566936E+00  9.3114103578E-01
  2.9732441472E+04  2.5419047820E+01  5.3386937060E+00  9.2645381387E+00  2.9887255332E+00  9.3181979855E-01
  2.9829431438E+04  2.5557173516E+01  5.3386888344E+00  9.3632272867E+00  3.0008343868E+00  9.3249150713E-01
  2.9926421405E+04  2.5695597739E+01  5.3386839785E+00  9.4626418750E+00  3.0128832280E+00  9.3315623506E-01
  3.0023411371E+04  2.5834320164E+01  5.3386791384E+00  9.5629160666E+00  3.0248851676E+00  9.3381405568E-01
  3.0120401338E+04  2.5973523971E+01  5.3386974657E+00  9.6643400151E+00  3.0368780421E+00  9.3446504212E-01
  3.0217391304E+04  2.6113352969E+01  5.3387566765E+00  9.7665080463E+00  3.0488283104E+00  9.3510926524E-01
  3.0314381271E+04  2.6253483025E+01  5.3388156982E+00  9.8694232005E+00  3.0607183490E+00  9.3574679037E-01
  3.0411371237E+04  2.6393913819E+01  5.3388745320E+00  9.9730885207E+00  3.0725481677E+00  9.3637768219E-01
  3.0508361204E+04  2.6534645036E+01  5.3389331791E+00  1.0077507052E+01  3.0843177842E+00  9.3700200552E-01
  3.0605351171E+04  2.6675683218E+01  5.3389924969E+00  1.0182681844E+01  3.0960276042E+00  9.3761982528E-01
  3.0702341137E+04  2.6817519096E+01  5.3391134512E+00  1.0288615946E+01  3.1077049152E+00  9.3823120648E-01
  3.0799331104E+04  2.6959658194E+01  5.3392340268E+00  1.0395312411E+01  3.1193223800E+00  9.3883621413E-01
  3.0896321070E+04  2.7102100202E+01  5.3393542260E+00  1.0502774296E+01  3.1308800432E+00  9.3943491322E-01
  3.0993311037E+04  2.7244844813E+01  5.3394740511E+00  1.0611004659E+01  3.1423779564E+00  9.4002736870E-01
  3.1090301003E+04  2.7387891718E+01  5.3395935046E+00  1.0720006561E+01  3.1538161778E+00  9.4061364542E-01
  3.1187290970E+04  2.7531527015E+01  5.3397478050E+00  1.0829783065E+01  3.1652109322E+00  9.4119380812E-01
