#[MATERIAL DEFINITION FOR MC-GPU: interaction mean free path and sampling data from PENELOPE 2006]
#[MATERIAL NAME]
# MATERIAL18                                                    
#[NOMINAL DENSITY (g/cm^3)]
#   1.00000000
#[NUMBER OF DATA VALUES]
#   1495
#[MEAN FREE PATHS (cm) (ie, average distance between interactions)]
#[Energy (eV)     | Rayleigh        | Compton         | Photoelectric   | TOTAL (+pair prod) (cm) | Rayleigh: max cumul prob F^2]
  5.0000000000E+03  1.3180927055E+00  9.1639233377E+00  6.6420798864E-03  6.6040145622E-03  2.6297966757E-01
  5.0969899666E+03  1.3427057801E+00  9.0787144580E+00  6.9975937405E-03  6.9559807631E-03  2.6787269651E-01
  5.1939799331E+03  1.3674850433E+00  8.9969928136E+00  7.3648260268E-03  7.3194144792E-03  2.7271985064E-01
  5.2909698997E+03  1.3924277540E+00  8.9185569155E+00  7.7439302221E-03  7.6944567630E-03  2.7752258743E-01
  5.3879598662E+03  1.4175310953E+00  8.8432196355E+00  8.1350588348E-03  8.0812473188E-03  2.8228228076E-01
  5.4849498328E+03  1.4427921844E+00  8.7708069551E+00  8.5384588304E-03  8.4800186201E-03  2.8700022098E-01
  5.5819397993E+03  1.4682080842E+00  8.7011568439E+00  8.9553357928E-03  8.8919476546E-03  2.9167769084E-01
  5.6789297659E+03  1.4937758129E+00  8.6341182515E+00  9.3847779908E-03  9.3161225546E-03  2.9631595200E-01
  5.7759197324E+03  1.5194923538E+00  8.5695502000E+00  9.8269365268E-03  9.7526798471E-03  3.0091614653E-01
  5.8729096990E+03  1.5453546655E+00  8.5073209657E+00  1.0281961634E-02  1.0201754769E-02  3.0547936395E-01
  5.9698996656E+03  1.5713596951E+00  8.4473073333E+00  1.0750002695E-02  1.0663481278E-02  3.1000668996E-01
  6.0668896321E+03  1.5975046005E+00  8.3893935942E+00  1.1232239810E-02  1.1139006573E-02  3.1449914366E-01
  6.1638795987E+03  1.6237871335E+00  8.3334704095E+00  1.1728337978E-02  1.1627986050E-02  3.1895764144E-01
  6.2608695652E+03  1.6502055964E+00  8.2794344337E+00  1.2239878885E-02  1.2131958666E-02  3.2338309083E-01
  6.3578595318E+03  1.6767582962E+00  8.2271887012E+00  1.2770843889E-02  1.2654816152E-02  3.2777641371E-01
  6.4548494983E+03  1.7034519875E+00  8.1766847691E+00  1.3316209890E-02  1.3191605287E-02  3.3213838098E-01
  6.5518394649E+03  1.7302871289E+00  8.1278453782E+00  1.3878663134E-02  1.3744944581E-02  3.3646967083E-01
  6.6488294314E+03  1.7572533045E+00  8.0805457423E+00  1.4456970713E-02  1.4313603720E-02  3.4077096631E-01
  6.7458193980E+03  1.7843486230E+00  8.0347097412E+00  1.5050413738E-02  1.4896859048E-02  3.4504295435E-01
  6.8428093645E+03  1.8115711638E+00  7.9902657529E+00  1.5659159929E-02  1.5494856410E-02  3.4928632504E-01
  6.9397993311E+03  1.8389189832E+00  7.9471463431E+00  1.6283376379E-02  1.6107740440E-02  3.5350173596E-01
  7.0367892977E+03  1.8663910923E+00  7.9052922674E+00  1.6924389074E-02  1.6736788599E-02  3.5768967730E-01
  7.1337792642E+03  1.8940151959E+00  7.8647687586E+00  1.7583229596E-02  1.7382990249E-02  3.6185060130E-01
  7.2307692308E+03  1.9217619608E+00  7.8253913188E+00  1.8258226817E-02  1.8044686406E-02  3.6598496757E-01
  7.3277591973E+03  1.9496299979E+00  7.7871056517E+00  1.8949549768E-02  1.8722020781E-02  3.7009324193E-01
  7.4247491639E+03  1.9776178333E+00  7.7498605879E+00  1.9657366905E-02  1.9415135865E-02  3.7417589511E-01
  7.5217391304E+03  2.0057419032E+00  7.7136753589E+00  2.0381846127E-02  2.0124175194E-02  3.7823334050E-01
  7.6187290970E+03  2.0340075918E+00  7.6785231357E+00  2.1123154780E-02  2.0849280037E-02  3.8226588379E-01
  7.7157190635E+03  2.0623910393E+00  7.6442745872E+00  2.1881459664E-02  2.1590586598E-02  3.8627382868E-01
  7.8127090301E+03  2.0908904788E+00  7.6108888610E+00  2.2656927047E-02  2.2348232530E-02  3.9025748642E-01
  7.9096989967E+03  2.1195333465E+00  7.5784247526E+00  2.3449722667E-02  2.3122358643E-02  3.9421717507E-01
  8.0066889632E+03  2.1483114044E+00  7.5468158042E+00  2.4260986075E-02  2.3914046340E-02  3.9815319703E-01
  8.1036789298E+03  2.1772028671E+00  7.5159587621E+00  2.5103495721E-02  2.4735671707E-02  4.0206576661E-01
  8.2006688963E+03  2.2062152304E+00  7.4858497142E+00  2.5964654126E-02  2.5574959135E-02  4.0595508327E-01
  8.2976588629E+03  2.2353873308E+00  7.4565735450E+00  2.6844644294E-02  2.6432064176E-02  4.0982135453E-01
  8.3946488294E+03  2.2646705744E+00  7.4279543811E+00  2.7743648803E-02  2.7307126217E-02  4.1366479515E-01
  8.4916387960E+03  2.2940648653E+00  7.3999702603E+00  2.8661849816E-02  2.8200291338E-02  4.1748560834E-01
  8.5886287625E+03  2.3236313508E+00  7.3727623741E+00  2.9599429083E-02  2.9111716539E-02  4.2128393301E-01
  8.6856187291E+03  2.3533061439E+00  7.3461296150E+00  3.0556567949E-02  3.0041533676E-02  4.2505990029E-01
  8.7826086957E+03  2.3830949488E+00  7.3200689210E+00  3.1533447355E-02  3.0989886359E-02  4.2881364916E-01
  8.8795986622E+03  2.4130547656E+00  7.2946993613E+00  3.2530247848E-02  3.1956928504E-02  4.3254532737E-01
  8.9765886288E+03  2.4431193740E+00  7.2698340976E+00  3.3547149583E-02  3.2942786295E-02  4.3625509681E-01
  9.0735785953E+03  2.4733150192E+00  7.2455193389E+00  3.4589713269E-02  3.3952789223E-02  4.3994303048E-01
  9.1705685619E+03  2.5036661061E+00  7.2217878516E+00  3.5654764142E-02  3.4983839436E-02  4.4360918250E-01
  9.2675585284E+03  2.5341181514E+00  7.1984995086E+00  3.6740819115E-02  3.6034456614E-02  4.4725361561E-01
  9.3645484950E+03  2.5647348657E+00  7.1757748599E+00  3.7848064274E-02  3.7104798467E-02  4.5087640058E-01
  9.4615384615E+03  2.5954757410E+00  7.1535075347E+00  3.8976685361E-02  3.8194995147E-02  4.5447761570E-01
  9.5585284281E+03  2.6263340095E+00  7.1316709905E+00  4.0126867777E-02  3.9305183701E-02  4.5805734626E-01
  9.6555183946E+03  2.6573666540E+00  7.1103582351E+00  4.1298796586E-02  4.0435518203E-02  4.6161568406E-01
  9.7525083612E+03  2.6884942452E+00  7.0894026375E+00  4.2492656519E-02  4.1586112481E-02  4.6515272078E-01
  9.8494983278E+03  2.7197986899E+00  7.0689416091E+00  4.3708631976E-02  4.2757126319E-02  4.6866848605E-01
  9.9464882943E+03  2.7512189967E+00  7.0488487753E+00  4.4946907032E-02  4.3948675404E-02  4.7216298692E-01
  1.0043478261E+04  2.7827793687E+00  7.0291556538E+00  4.6213315499E-02  4.5166297032E-02  4.7563623991E-01
  1.0140468227E+04  2.8144946141E+00  7.0098718133E+00  4.7509767604E-02  4.6411760864E-02  4.7908826926E-01
  1.0237458194E+04  2.8463163211E+00  6.9909076697E+00  4.8829662881E-02  4.7678693156E-02  4.8251910642E-01
  1.0334448161E+04  2.8783288451E+00  6.9723850076E+00  5.0173195463E-02  4.8967261540E-02  4.8592878970E-01
  1.0431438127E+04  2.9104254293E+00  6.9541266818E+00  5.1540559214E-02  5.0277564152E-02  4.8931736385E-01
  1.0528428094E+04  2.9427295628E+00  6.9363095900E+00  5.2931947726E-02  5.1609782326E-02  4.9268487640E-01
  1.0625418060E+04  2.9751228420E+00  6.9187464554E+00  5.4347554328E-02  5.2964004919E-02  4.9603133866E-01
  1.0722408027E+04  3.0077043302E+00  6.9015719973E+00  5.5787572085E-02  5.4340403601E-02  4.9935674528E-01
  1.0819397993E+04  3.0403957549E+00  6.8846645328E+00  5.7252193799E-02  5.5739078000E-02  5.0266109872E-01
  1.0916387960E+04  3.0732603688E+00  6.8681033514E+00  5.8741612017E-02  5.7160184581E-02  5.0594440852E-01
  1.1013377926E+04  3.1062510134E+00  6.8518145132E+00  6.0256019028E-02  5.8603831716E-02  5.0920669097E-01
  1.1110367893E+04  3.1394045472E+00  6.8358390871E+00  6.1795606868E-02  6.0070163100E-02  5.1244796874E-01
  1.1207357860E+04  3.1726950984E+00  6.8201341169E+00  6.3364439120E-02  6.1562947638E-02  5.1566827059E-01
  1.1304347826E+04  3.2061433681E+00  6.8047186153E+00  6.4969216146E-02  6.3088445586E-02  5.1886761754E-01
  1.1401337793E+04  3.2397341145E+00  6.7895648664E+00  6.6600341085E-02  6.4637521355E-02  5.2204600490E-01
  1.1498327759E+04  3.2734829572E+00  6.7746850175E+00  6.8258015431E-02  6.6210312329E-02  5.2520343141E-01
  1.1595317726E+04  3.3073737776E+00  6.7600517970E+00  6.9942440473E-02  6.7806938183E-02  5.2833990253E-01
  1.1692307692E+04  3.3414290494E+00  6.7456847696E+00  7.1653817294E-02  6.9427537579E-02  5.3145543016E-01
  1.1789297659E+04  3.3756194014E+00  6.7315431948E+00  7.3392346777E-02  7.1072219582E-02  5.3455003235E-01
  1.1886287625E+04  3.4099869770E+00  6.7176674893E+00  7.5158229604E-02  7.2741131672E-02  5.3762373300E-01
  1.1983277592E+04  3.4444758854E+00  6.7039903568E+00  7.6951666258E-02  7.4434363851E-02  5.4067655168E-01
  1.2080267559E+04  3.4791616558E+00  6.6905857071E+00  7.8772857025E-02  7.6152081680E-02  5.4370849033E-01
  1.2177257525E+04  3.5139477006E+00  6.6773473741E+00  8.0622001996E-02  7.7894345825E-02  5.4671955488E-01
  1.2274247492E+04  3.5489575720E+00  6.6643946575E+00  8.2499301067E-02  7.9661351116E-02  5.4970975748E-01
  1.2371237458E+04  3.5840388768E+00  6.6515709323E+00  8.4404953943E-02  8.1453116574E-02  5.5267911629E-01
  1.2468227425E+04  3.6193787801E+00  6.6390521074E+00  8.6339160139E-02  8.3269879637E-02  5.5562765524E-01
  1.2565217391E+04  3.6547892532E+00  6.6266535782E+00  8.8316052657E-02  8.5124573185E-02  5.5855540676E-01
  1.2662207358E+04  3.6904292617E+00  6.6145188176E+00  9.0329341801E-02  8.7011349186E-02  5.6146242102E-01
  1.2759197324E+04  3.7261776447E+00  6.6025318092E+00  9.2372578245E-02  8.8924046062E-02  5.6434871162E-01
  1.2856187291E+04  3.7621132343E+00  6.5907588475E+00  9.4445973486E-02  9.0862837378E-02  5.6721428988E-01
  1.2953177258E+04  3.7982066198E+00  6.5791693494E+00  9.6549738878E-02  9.2827817928E-02  5.7005917315E-01
  1.3050167224E+04  3.8344349748E+00  6.5677390178E+00  9.8684085637E-02  9.4819083621E-02  5.7288338455E-01
  1.3147157191E+04  3.8708805364E+00  6.5565338184E+00  1.0084922484E-01  9.6836812053E-02  5.7568695278E-01
  1.3244147157E+04  3.9074008055E+00  6.5454298865E+00  1.0304536742E-01  9.8880999440E-02  5.7846991186E-01
  1.3341137124E+04  3.9442031746E+00  6.5345943344E+00  1.0527272419E-01  1.0095192575E-01  5.8123230091E-01
  1.3438127090E+04  3.9810844274E+00  6.5238571094E+00  1.0753150580E-01  1.0304952953E-01  5.8397416398E-01
  1.3535117057E+04  4.0181777072E+00  6.5133214041E+00  1.0982192279E-01  1.0517402997E-01  5.8669554979E-01
  1.3632107023E+04  4.0554272272E+00  6.5029392492E+00  1.1214418555E-01  1.0732548388E-01  5.8939651156E-01
  1.3729096990E+04  4.0928066776E+00  6.4926868339E+00  1.1449917730E-01  1.0950458446E-01  5.9207710685E-01
  1.3826086957E+04  4.1304317779E+00  6.4826486878E+00  1.1688761399E-01  1.1171200046E-01  5.9473739504E-01
  1.3923076923E+04  4.1681361196E+00  6.4726960711E+00  1.1930858356E-01  1.1394664636E-01  5.9737740824E-01
  1.4020066890E+04  4.2060999975E+00  6.4629589886E+00  1.2176229656E-01  1.1620879435E-01  5.9999717297E-01
  1.4117056856E+04  4.2441889885E+00  6.4533356351E+00  1.2424896339E-01  1.1849841019E-01  6.0259672133E-01
  1.4214046823E+04  4.2824331273E+00  6.4438448240E+00  1.2676879435E-01  1.2081561701E-01  6.0517609075E-01
  1.4311036789E+04  4.3209141729E+00  6.4345409301E+00  1.2932199959E-01  1.2316059438E-01  6.0773532382E-01
  1.4408026756E+04  4.3594775805E+00  6.4253131766E+00  1.3190878914E-01  1.2553327006E-01  6.1027446805E-01
  1.4505016722E+04  4.3983122336E+00  6.4162881315E+00  1.3452937293E-01  1.2793393789E-01  6.1279357570E-01
  1.4602006689E+04  4.4372769413E+00  6.4073667579E+00  1.3718396071E-01  1.3036253277E-01  6.1529270359E-01
  1.4698996656E+04  4.4763830049E+00  6.3985543652E+00  1.3987276217E-01  1.3281915104E-01  6.1777191285E-01
  1.4795986622E+04  4.5157564984E+00  6.3899306474E+00  1.4259598682E-01  1.3530402488E-01  6.2023126881E-01
  1.4892976589E+04  4.5552156630E+00  6.3813747842E+00  1.4535384409E-01  1.3781702409E-01  6.2267083741E-01
  1.4989966555E+04  4.5949151099E+00  6.3729832642E+00  1.4814654327E-01  1.4035841450E-01  6.2509066852E-01
  1.5086956522E+04  4.6347920902E+00  6.3647134106E+00  1.5100387067E-01  1.4295470995E-01  6.2749081043E-01
  1.5183946488E+04  4.6747562784E+00  6.3565071800E+00  1.5390087185E-01  1.4558323079E-01  6.2987131638E-01
  1.5280936455E+04  4.7150492132E+00  6.3485122250E+00  1.5683441166E-01  1.4824135835E-01  6.3223224429E-01
  1.5377926421E+04  4.7554366453E+00  6.3405811198E+00  1.5980471357E-01  1.5092887104E-01  6.3457365658E-01
  1.5474916388E+04  4.7959814300E+00  6.3327515920E+00  1.6281200093E-01  1.5364592923E-01  6.3689561995E-01
  1.5571906355E+04  4.8367935040E+00  6.3250883318E+00  1.6585649706E-01  1.5639276521E-01  6.3919820523E-01
  1.5668896321E+04  4.8776962286E+00  6.3174818416E+00  1.6893842517E-01  1.5916920830E-01  6.4148148715E-01
  1.5765886288E+04  4.9188202455E+00  6.3100102040E+00  1.7205800844E-01  1.6197551885E-01  6.4374554424E-01
  1.5862876254E+04  4.9601507593E+00  6.3026618175E+00  1.7521546993E-01  1.6481175131E-01  6.4599045851E-01
  1.5959866221E+04  5.0015734417E+00  6.2953667039E+00  1.7841103267E-01  1.6767780291E-01  6.4821630704E-01
  1.6056856187E+04  5.0432695734E+00  6.2882319493E+00  1.8164491961E-01  1.7057402111E-01  6.5042315629E-01
  1.6153846154E+04  5.0851230521E+00  6.2811857934E+00  1.8491735362E-01  1.7350029494E-01  6.5261107567E-01
  1.6250836120E+04  5.1270702058E+00  6.2741896418E+00  1.8822855751E-01  1.7645658290E-01  6.5478013871E-01
  1.6347826087E+04  5.1693309943E+00  6.2673718130E+00  1.9157875401E-01  1.7944331054E-01  6.5693042287E-01
  1.6444816054E+04  5.2117118127E+00  6.2606160220E+00  1.9496816580E-01  1.8246022008E-01  6.5906200936E-01
  1.6541806020E+04  5.2541900771E+00  6.2539085039E+00  1.9839701548E-01  1.8550732557E-01  6.6117498297E-01
  1.6638795987E+04  5.2970054621E+00  6.2473872862E+00  2.0186552557E-01  1.8858510617E-01  6.6326943189E-01
  1.6735785953E+04  5.3399178469E+00  6.2409107122E+00  2.0537391855E-01  1.9169319483E-01  6.6534544756E-01
  1.6832775920E+04  5.3829437591E+00  6.2344879307E+00  2.0892241682E-01  1.9483166760E-01  6.6740312381E-01
  1.6929765886E+04  5.4262933219E+00  6.2282381747E+00  2.1251124270E-01  1.9800097012E-01  6.6944254209E-01
  1.7026755853E+04  5.4697413536E+00  6.2220303326E+00  2.1614061846E-01  2.0120073005E-01  6.7146378458E-01
  1.7123745819E+04  5.5133066413E+00  6.2158747591E+00  2.1981076630E-01  2.0443102382E-01  6.7346693980E-01
  1.7220735786E+04  5.5571943278E+00  6.2098864242E+00  2.2352190836E-01  2.0769230626E-01  6.7545209956E-01
  1.7317725753E+04  5.6011819418E+00  6.2039374427E+00  2.2727426670E-01  2.1098417808E-01  6.7741935874E-01
  1.7414715719E+04  5.6452780468E+00  6.1980323350E+00  2.3106806333E-01  2.1430669036E-01  6.7936881516E-01
  1.7511705686E+04  5.6897076437E+00  6.1922959583E+00  2.3490709567E-01  2.1766342878E-01  6.8130056942E-01
  1.7608695652E+04  5.7342386162E+00  6.1865965305E+00  2.3881451846E-01  2.2107357593E-01  6.8321472475E-01
  1.7705685619E+04  5.7788706353E+00  6.1809336123E+00  2.4276487021E-01  2.2451506051E-01  6.8511138683E-01
  1.7802675585E+04  5.8238316961E+00  6.1754324974E+00  2.4675838248E-01  2.2798843118E-01  6.8699176461E-01
  1.7899665552E+04  5.8689094974E+00  6.1699738087E+00  2.5079528682E-01  2.3149324857E-01  6.8885745688E-01
  1.7996655518E+04  5.9140897865E+00  6.1645494045E+00  2.5487581474E-01  2.3502950478E-01  6.9070851967E-01
  1.8093645485E+04  5.9595640017E+00  6.1592633912E+00  2.5900019769E-01  2.3859768501E-01  6.9254500175E-01
  1.8190635452E+04  6.0051918577E+00  6.1540370983E+00  2.6316866713E-01  2.4219748779E-01  6.9436695458E-01
  1.8287625418E+04  6.0509236295E+00  6.1488429966E+00  2.6738145443E-01  2.4582881258E-01  6.9617443221E-01
  1.8384615385E+04  6.0969013854E+00  6.1437575492E+00  2.7163879097E-01  2.4949203914E-01  6.9796749117E-01
  1.8481605351E+04  6.1430823700E+00  6.1387557668E+00  2.7594090808E-01  2.5318708805E-01  6.9974619034E-01
  1.8578595318E+04  6.1893686854E+00  6.1337842050E+00  2.8028803704E-01  2.5691372396E-01  7.0151059087E-01
  1.8675585284E+04  6.2358401814E+00  6.1288853709E+00  2.8468040912E-01  2.6067217269E-01  7.0326075819E-01
  1.8772575251E+04  6.2825772189E+00  6.1241006405E+00  2.8912243542E-01  2.6446617133E-01  7.0499676545E-01
  1.8869565217E+04  6.3294209891E+00  6.1193442737E+00  2.9361242695E-01  2.6829367602E-01  7.0671868817E-01
  1.8966555184E+04  6.3763762558E+00  6.1146186436E+00  2.9814851575E-01  2.7215294217E-01  7.0842660333E-01
  1.9063545151E+04  6.4236721226E+00  6.1100439041E+00  3.0273093463E-01  2.7604464010E-01  7.1012058933E-01
  1.9160535117E+04  6.4710761108E+00  6.1054957773E+00  3.0735991641E-01  2.7996811255E-01  7.1180072586E-01
  1.9257525084E+04  6.5185879186E+00  6.1009739748E+00  3.1203569387E-01  2.8392335540E-01  7.1346709384E-01
  1.9354515050E+04  6.5663623538E+00  6.0965590096E+00  3.1675849973E-01  2.8791084057E-01  7.1511977536E-01
  1.9451505017E+04  6.6143291765E+00  6.0922125309E+00  3.2152856671E-01  2.9193036344E-01  7.1675885111E-01
  1.9548494983E+04  6.6624051988E+00  6.0878907468E+00  3.2634612750E-01  2.9598166198E-01  7.1838438007E-01
  1.9645484950E+04  6.7106427609E+00  6.0836205911E+00  3.3121141475E-01  3.0006489476E-01  7.1999642139E-01
  1.9742474916E+04  6.7591748888E+00  6.0794695083E+00  3.3612466108E-01  3.0418049591E-01  7.2159503811E-01
  1.9839464883E+04  6.8078175832E+00  6.0753415806E+00  3.4108609908E-01  3.0832785987E-01  7.2318029527E-01
  1.9936454849E+04  6.8565705537E+00  6.0712365666E+00  3.4609596132E-01  3.1250696745E-01  7.2475225986E-01
  2.0033444816E+04  6.9056079366E+00  6.0672427303E+00  3.5116569489E-01  3.1672752804E-01  7.2631100068E-01
  2.0130434783E+04  6.9548201483E+00  6.0633027606E+00  3.5630616468E-01  3.2099772689E-01  7.2785658826E-01
  2.0227424749E+04  7.0041439988E+00  6.0593842686E+00  3.6149656504E-01  3.2530016446E-01  7.2938909480E-01
  2.0324414716E+04  7.0536238269E+00  6.0555091269E+00  3.6673713714E-01  3.2963497755E-01  7.3090859404E-01
  2.0421404682E+04  7.1034112571E+00  6.0517512480E+00  3.7202812216E-01  3.3400270841E-01  7.3241516120E-01
  2.0518394649E+04  7.1533117079E+00  6.0480134901E+00  3.7736976128E-01  3.3840262836E-01  7.3390887288E-01
  2.0615384615E+04  7.2033248996E+00  6.0442956511E+00  3.8276229566E-01  3.4283470481E-01  7.3538980702E-01
  2.0712374582E+04  7.2535914279E+00  6.0406647527E+00  3.8820596646E-01  3.4729944794E-01  7.3685804276E-01
  2.0809364548E+04  7.3040752196E+00  6.0371021344E+00  3.9370101485E-01  3.5179670442E-01  7.3831366041E-01
  2.0906354515E+04  7.3546731666E+00  6.0335581690E+00  3.9924768196E-01  3.5632604326E-01  7.3975674135E-01
  2.1003344482E+04  7.4053849958E+00  6.0300326730E+00  4.0484620897E-01  3.6088742309E-01  7.4118736759E-01
  2.1100334448E+04  7.4564355108E+00  6.0266290376E+00  4.1049683699E-01  3.6548172187E-01  7.4260561549E-01
  2.1197324415E+04  7.5076249878E+00  6.0232536892E+00  4.1619980718E-01  3.7010810528E-01  7.4401155802E-01
  2.1294314381E+04  7.5589297939E+00  6.0198956272E+00  4.2195536067E-01  3.7476643137E-01  7.4540526953E-01
  2.1391304348E+04  7.6103926989E+00  6.0165739342E+00  4.2776373858E-01  3.7945683364E-01  7.4678682568E-01
  2.1488294314E+04  7.6621804818E+00  6.0133621944E+00  4.3362518204E-01  3.8417999032E-01  7.4815630336E-01
  2.1585284281E+04  7.7140850687E+00  6.0101666216E+00  4.3953993216E-01  3.8893497375E-01  7.4951378061E-01
  2.1682274247E+04  7.7661061966E+00  6.0069870621E+00  4.4550823006E-01  3.9372172768E-01  7.5085933652E-01
  2.1779264214E+04  7.8183388761E+00  6.0038644972E+00  4.5153031684E-01  3.9854062230E-01  7.5219305123E-01
  2.1876254181E+04  7.8708500454E+00  6.0008266974E+00  4.5760643362E-01  4.0339192137E-01  7.5351500576E-01
  2.1973244147E+04  7.9234792632E+00  5.9978038631E+00  4.6373682148E-01  4.0827485151E-01  7.5482528203E-01
  2.2070234114E+04  7.9762262717E+00  5.9947958548E+00  4.6992172152E-01  4.1318934800E-01  7.5612396273E-01
  2.2167224080E+04  8.0292230277E+00  5.9918576629E+00  4.7616137483E-01  4.1813597086E-01  7.5741113130E-01
  2.2264214047E+04  8.0824671589E+00  5.9889871080E+00  4.8245602248E-01  4.2311466621E-01  7.5868687184E-01
  2.2361204013E+04  8.1358306204E+00  5.9861303972E+00  4.8880616928E-01  4.2812496774E-01  7.5995126906E-01
  2.2458193980E+04  8.1893131603E+00  5.9832874041E+00  4.9526283669E-01  4.3320565330E-01  7.6120440782E-01
  2.2555183946E+04  8.2430672283E+00  5.9805195260E+00  5.0177634522E-01  4.3831900601E-01  7.6244636818E-01
  2.2652173913E+04  8.2970539846E+00  5.9778099170E+00  5.0834694677E-01  4.4346478421E-01  7.6367722770E-01
  2.2749163880E+04  8.3511613909E+00  5.9751131048E+00  5.1497489326E-01  4.4864235866E-01  7.6489706479E-01
  2.2846153846E+04  8.4053892005E+00  5.9724289747E+00  5.2166043662E-01  4.5385164840E-01  7.6610595863E-01
  2.2943143813E+04  8.4598927150E+00  5.9698179968E+00  5.2840382883E-01  4.5909338651E-01  7.6730398912E-01
  2.3040133779E+04  8.5146318439E+00  5.9672634014E+00  5.3520532187E-01  4.6436730758E-01  7.6849123681E-01
  2.3137123746E+04  8.5694929794E+00  5.9647206236E+00  5.4206516773E-01  4.6967273734E-01  7.6966778287E-01
  2.3234113712E+04  8.6244758805E+00  5.9621895595E+00  5.4898361845E-01  4.7500958653E-01  7.7083370898E-01
  2.3331103679E+04  8.6797198399E+00  5.9597226683E+00  5.5596092607E-01  4.8037853250E-01  7.7198909733E-01
  2.3428093645E+04  8.7352211682E+00  5.9573174935E+00  5.6299734266E-01  4.8577949156E-01  7.7313403052E-01
  2.3525083612E+04  8.7908458972E+00  5.9549232201E+00  5.7009312031E-01  4.9121164095E-01  7.7426859155E-01
  2.3622073579E+04  8.8465937906E+00  5.9525397539E+00  5.7724851112E-01  4.9667488328E-01  7.7539286374E-01
  2.3719063545E+04  8.9025680218E+00  5.9502046939E+00  5.8446376723E-01  5.0216971643E-01  7.7650693067E-01
  2.3816053512E+04  8.9588414518E+00  5.9479436616E+00  5.9173914077E-01  5.0769648840E-01  7.7761087589E-01
  2.3913043478E+04  9.0152397131E+00  5.9456926725E+00  5.9907488394E-01  5.1325410232E-01  7.7870477916E-01
  2.4010033445E+04  9.0717625747E+00  5.9434516415E+00  6.0647124890E-01  5.1884245292E-01  7.7978871789E-01
  2.4107023411E+04  9.1284556971E+00  5.9412366768E+00  6.1392848787E-01  5.2446171042E-01  7.8086276994E-01
  2.4204013378E+04  9.1855112019E+00  5.9391148008E+00  6.2144685308E-01  5.3011295312E-01  7.8192701358E-01
  2.4301003344E+04  9.2426930054E+00  5.9370021639E+00  6.2902659678E-01  5.3579466029E-01  7.8298152746E-01
  2.4397993311E+04  9.3000008814E+00  5.9348986891E+00  6.3666797124E-01  5.4150671901E-01  7.8402639054E-01
  2.4494983278E+04  9.3574346051E+00  5.9328043007E+00  6.4437122874E-01  5.4724901422E-01  7.8506168206E-01
  2.4591973244E+04  9.4152478895E+00  5.9308051341E+00  6.5213662160E-01  5.5302305451E-01  7.8608748148E-01
  2.4688963211E+04  9.4732233111E+00  5.9288261847E+00  6.5996440214E-01  5.5882737086E-01  7.8710386846E-01
  2.4785953177E+04  9.5313263140E+00  5.9268556508E+00  6.6785482270E-01  5.6466162569E-01  7.8811092278E-01
  2.4882943144E+04  9.5895566782E+00  5.9248934639E+00  6.7580813566E-01  5.7052569659E-01  7.8910872434E-01
  2.4979933110E+04  9.6480665294E+00  5.9229901010E+00  6.8382459340E-01  5.7642048165E-01  7.9009735308E-01
  2.5076923077E+04  9.7068430802E+00  5.9211403872E+00  6.9194497478E-01  5.8237451214E-01  7.9107688897E-01
  2.5173913043E+04  9.7657487357E+00  5.9192983881E+00  7.0014048782E-01  5.8836597379E-01  7.9204740971E-01
  2.5270903010E+04  9.8247832804E+00  5.9174640419E+00  7.0840092616E-01  5.9438729831E-01  7.9300899001E-01
  2.5367892977E+04  9.8839723338E+00  5.9156461773E+00  7.1672655124E-01  6.0043854008E-01  7.9396170457E-01
  2.5464882943E+04  9.9435399123E+00  5.9139212431E+00  7.2511762454E-01  6.0652121167E-01  7.9490562828E-01
  2.5561872910E+04  1.0003237990E+01  5.9122033664E+00  7.3357440759E-01  6.1263340458E-01  7.9584083615E-01
  2.5658862876E+04  1.0063066356E+01  5.9104924917E+00  7.4209716194E-01  6.1877498118E-01  7.9676740331E-01
  2.5755852843E+04  1.0123024800E+01  5.9087885642E+00  7.5068614920E-01  6.2494580189E-01  7.9768540495E-01
  2.5852842809E+04  1.0183261361E+01  5.9071458066E+00  7.5934163099E-01  6.3114691428E-01  7.9859491628E-01
  2.5949832776E+04  1.0243733537E+01  5.9055477717E+00  7.6806386901E-01  6.3737787154E-01  7.9949601250E-01
  2.6046822742E+04  1.0304337212E+01  5.9039561284E+00  7.7685312495E-01  6.4363770495E-01  8.0038876878E-01
  2.6143812709E+04  1.0365072180E+01  5.9023708275E+00  7.8570966059E-01  6.4992626815E-01  8.0127326022E-01
  2.6240802676E+04  1.0425938720E+01  5.9007920119E+00  7.9463373770E-01  6.5624341721E-01  8.0214956180E-01
  2.6337792642E+04  1.0487165515E+01  5.8993097541E+00  8.0362561813E-01  6.6259105282E-01  8.0301774745E-01
  2.6434782609E+04  1.0548524829E+01  5.8978333151E+00  8.1268556374E-01  6.6896702967E-01  8.0387788714E-01
  2.6531772575E+04  1.0610016460E+01  5.8963626507E+00  8.2181383643E-01  6.7537119492E-01  8.0473005213E-01
  2.6628762542E+04  1.0671640208E+01  5.8948977174E+00  8.3101069817E-01  6.8180339394E-01  8.0557431379E-01
  2.6725752508E+04  1.0733465453E+01  5.8934685032E+00  8.4027641092E-01  6.8826416599E-01  8.0641074347E-01
  2.6822742475E+04  1.0795559624E+01  5.8921034406E+00  8.4961123671E-01  6.9475405901E-01  8.0723941241E-01
  2.6919732441E+04  1.0857786945E+01  5.8907436195E+00  8.5901543759E-01  7.0127157304E-01  8.0806039156E-01
  2.7016722408E+04  1.0920147221E+01  5.8893890012E+00  8.6848927567E-01  7.0781654732E-01  8.0887375049E-01
  2.7113712375E+04  1.0982640257E+01  5.8880395471E+00  8.7803301308E-01  7.1438881942E-01  8.0967955853E-01
  2.7210702341E+04  1.1045373879E+01  5.8867468560E+00  8.8764691198E-01  7.2098946006E-01  8.1047780308E-01
  2.7307692308E+04  1.1108314833E+01  5.8854942691E+00  8.9733123458E-01  7.2761796115E-01  8.1126897255E-01
  2.7404682274E+04  1.1171389388E+01  5.8842463884E+00  9.0708634461E-01  7.3427339091E-01  8.1205551815E-01
  2.7501672241E+04  1.1234597352E+01  5.8830031795E+00  9.1691283666E-01  7.4095579752E-01  8.1283843682E-01
  2.7598662207E+04  1.1297938537E+01  5.8817646086E+00  9.2681054876E-01  7.4766473216E-01  8.1361774702E-01
  2.7695652174E+04  1.1361533633E+01  5.8805960261E+00  9.3677974334E-01  7.5440163252E-01  8.1439346914E-01
  2.7792642140E+04  1.1425299163E+01  5.8794514757E+00  9.4682068286E-01  7.6116525646E-01  8.1516562358E-01
  2.7889632107E+04  1.1489198561E+01  5.8783111343E+00  9.5693362982E-01  7.6795495127E-01  8.1593423065E-01
  2.7986622074E+04  1.1553231641E+01  5.8771749716E+00  9.6711884675E-01  7.7477054187E-01  8.1669931050E-01
  2.8083612040E+04  1.1617398217E+01  5.8760429581E+00  9.7737659623E-01  7.8161185167E-01  8.1746088313E-01
  2.8180602007E+04  1.1681811772E+01  5.8749866870E+00  9.8770714086E-01  7.8848051058E-01  8.1821896843E-01
  2.8277591973E+04  1.1746378086E+01  5.8739459927E+00  9.9811074328E-01  7.9537488471E-01  8.1897358614E-01
  2.8374581940E+04  1.1811078352E+01  5.8729090452E+00  1.0085876662E+00  8.0229450084E-01  8.1972475587E-01
  2.8471571906E+04  1.1875912387E+01  5.8718758183E+00  1.0191381723E+00  8.0923917751E-01  8.2047249709E-01
  2.8568561873E+04  1.1940880012E+01  5.8708462860E+00  1.0297625243E+00  8.1620873187E-01  8.2121682914E-01
  2.8665551839E+04  1.2006073371E+01  5.8698911044E+00  1.0404609850E+00  8.2320480393E-01  8.2195777124E-01
  2.8762541806E+04  1.2071415127E+01  5.8689503250E+00  1.0512338173E+00  8.3022572492E-01  8.2269534248E-01
  2.8859531773E+04  1.2136890735E+01  5.8680128627E+00  1.0620812840E+00  8.3727102785E-01  8.2342956179E-01
  2.8956521739E+04  1.2202500017E+01  5.8670786947E+00  1.0730036480E+00  8.4434052544E-01  8.2416044802E-01
  2.9053511706E+04  1.2268242798E+01  5.8661477985E+00  1.0840011721E+00  8.5143402910E-01  8.2488801986E-01
  2.9150501672E+04  1.2334182139E+01  5.8652830218E+00  1.0950741194E+00  8.5855300255E-01  8.2561229588E-01
  2.9247491639E+04  1.2400272483E+01  5.8644384377E+00  1.1062227529E+00  8.6569610742E-01  8.2633329454E-01
  2.9344481605E+04  1.2466496396E+01  5.8635967709E+00  1.1174473356E+00  8.7286270563E-01  8.2705103415E-01
  2.9441471572E+04  1.2532853704E+01  5.8627580015E+00  1.1287481305E+00  8.8005260459E-01  8.2776553292E-01
  2.9538461538E+04  1.2599344236E+01  5.8619221102E+00  1.1401254008E+00  8.8726561057E-01  8.2847680894E-01
  2.9635451505E+04  1.2666001075E+01  5.8611375556E+00  1.1515794095E+00  8.9450282368E-01  8.2918488015E-01
  2.9732441472E+04  1.2732811717E+01  5.8603856527E+00  1.1631104198E+00  9.0176360308E-01  8.2988976497E-01
  2.9829431438E+04  1.2799755462E+01  5.8596362946E+00  1.1747186950E+00  9.0904696133E-01  8.3059148229E-01
  2.9926421405E+04  1.2866832141E+01  5.8588894644E+00  1.1864044982E+00  9.1635270112E-01  8.3129005042E-01
  3.0023411371E+04  1.2934041586E+01  5.8581451454E+00  1.1981911088E+00  9.2369430252E-01  8.3198548753E-01
  3.0120401338E+04  1.3001397482E+01  5.8574310879E+00  1.2101290939E+00  9.3110196296E-01  8.3267781168E-01
  3.0217391304E+04  1.3068910531E+01  5.8567685099E+00  1.2221469909E+00  9.3853331781E-01  8.3336704076E-01
  3.0314381271E+04  1.3136556121E+01  5.8561081299E+00  1.2342450748E+00  9.4598681300E-01  8.3405319254E-01
  3.0411371237E+04  1.3204334087E+01  5.8554499334E+00  1.2464236208E+00  9.5346224302E-01  8.3473628466E-01
  3.0508361204E+04  1.3272244264E+01  5.8547939064E+00  1.2586829042E+00  9.6095940137E-01  8.3541633463E-01
  3.0605351171E+04  1.3340287195E+01  5.8541410625E+00  1.2710232002E+00  9.6847811245E-01  8.3609335983E-01
  3.0702341137E+04  1.3408513239E+01  5.8535645533E+00  1.2834447843E+00  9.7602047117E-01  8.3676737750E-01
  3.0799331104E+04  1.3476871371E+01  5.8529899189E+00  1.2959479317E+00  9.8358399680E-01  8.3743840478E-01
  3.0896321070E+04  1.3545361429E+01  5.8524171474E+00  1.3085329181E+00  9.9116847996E-01  8.3810645866E-01
  3.0993311037E+04  1.3613983252E+01  5.8518462269E+00  1.3212000188E+00  9.9877371042E-01  8.3877155601E-01
  3.1090301003E+04  1.3682736680E+01  5.8512771456E+00  1.3339495096E+00  1.0063994771E+00  8.3943371358E-01
  3.1187290970E+04  1.3751661757E+01  5.8507521937E+00  1.3467816660E+00  1.0140470576E+00  8.4009294800E-01
