#[MATERIAL DEFINITION FOR MC-GPU: interaction mean free path and sampling data from PENELOPE 2006]
#[MATERIAL NAME]
# MATERIAL9                                                     
#[NOMINAL DENSITY (g/cm^3)]
#   1.00000000
#[NUMBER OF DATA VALUES]
#   1495
#[MEAN FREE PATHS (cm) (ie, average distance between interactions)]
#[Energy (eV)     | Rayleigh        | Compton         | Photoelectric   | TOTAL (+pair prod) (cm) | Rayleigh: max cumul prob F^2]
  5.0000000000E+03  1.9484122315E+00  8.1196934280E+00  2.5608835225E-02  2.5198171690E-02  3.4288517487E-01
  5.0969899666E+03  1.9915729849E+00  8.0421647352E+00  2.7136254134E-02  2.6682654718E-02  3.4783716989E-01
  5.1939799331E+03  2.0351938212E+00  7.9681912984E+00  2.8723299867E-02  2.8223239252E-02  3.5268906039E-01
  5.2909698997E+03  2.0792650531E+00  7.8975503226E+00  3.0371115929E-02  2.9820852707E-02  3.5744554072E-01
  5.3879598662E+03  2.1237768479E+00  7.8300358239E+00  3.2080845767E-02  3.1476413168E-02  3.6211098633E-01
  5.4849498328E+03  2.1687192585E+00  7.7654571053E+00  3.3854629513E-02  3.3191787224E-02  3.6668973658E-01
  5.5819397993E+03  2.2140822542E+00  7.7036373961E+00  3.5704750915E-02  3.4978561038E-02  3.7118617406E-01
  5.6789297659E+03  2.2598557517E+00  7.6444126346E+00  3.7621378883E-02  3.6827052066E-02  3.7560439851E-01
  5.7759197324E+03  2.3060296468E+00  7.5876303771E+00  3.9605701269E-02  3.8738174688E-02  3.7994824232E-01
  5.8729096990E+03  2.3525938464E+00  7.5331488184E+00  4.1658906270E-02  4.0712832547E-02  3.8422131334E-01
  5.9698996656E+03  2.3995383057E+00  7.4808359043E+00  4.3782182420E-02  4.2751918265E-02  3.8842724521E-01
  6.0668896321E+03  2.4468533283E+00  7.4305682381E+00  4.5985043238E-02  4.4864237072E-02  3.9256957231E-01
  6.1638795987E+03  2.4945300736E+00  7.3822298843E+00  4.8264950553E-02  4.7047075628E-02  3.9665160327E-01
  6.2608695652E+03  2.5425605348E+00  7.3357118770E+00  5.0619537457E-02  4.9297895007E-02  4.0067645103E-01
  6.3578595318E+03  2.5909368781E+00  7.2909124316E+00  5.3050031292E-02  5.1617570588E-02  4.0464706763E-01
  6.4548494983E+03  2.6396633601E+00  7.2477853733E+00  5.5557660068E-02  5.4006973021E-02  4.0856633133E-01
  6.5518394649E+03  2.6887342551E+00  7.2062503601E+00  5.8143995440E-02  5.6467278976E-02  4.1243696203E-01
  6.6488294314E+03  2.7381292988E+00  7.1661726552E+00  6.0810080680E-02  5.8999141259E-02  4.1626153239E-01
  6.7458193980E+03  2.7878408699E+00  7.1274735782E+00  6.3557026955E-02  6.1603271319E-02  4.2004248586E-01
  6.8428093645E+03  2.8378615662E+00  7.0900794548E+00  6.6386066144E-02  6.4280480416E-02  4.2378215317E-01
  6.9397993311E+03  2.8881842343E+00  7.0539212627E+00  6.9298430743E-02  6.7031565877E-02  4.2748271441E-01
  7.0367892977E+03  2.9388031221E+00  7.0189390980E+00  7.2306429700E-02  6.9867653283E-02  4.3114623444E-01
  7.1337792642E+03  2.9897446525E+00  6.9852110537E+00  7.5419790990E-02  7.2797393621E-02  4.3477468956E-01
  7.2307692308E+03  3.0409697623E+00  6.9525361236E+00  7.8622328331E-02  7.5805195094E-02  4.3836996388E-01
  7.3277591973E+03  3.0924733894E+00  6.9208596279E+00  8.1915343690E-02  7.8891843433E-02  4.4193378526E-01
  7.4247491639E+03  3.1442506791E+00  6.8901303578E+00  8.5300140173E-02  8.2058108644E-02  4.4546778393E-01
  7.5217391304E+03  3.1963146696E+00  6.8603736731E+00  8.8778022011E-02  8.5304768639E-02  4.4897353266E-01
  7.6187290970E+03  3.2486650828E+00  6.8315631041E+00  9.2350294543E-02  8.8632571994E-02  4.5245253148E-01
  7.7157190635E+03  3.3012746189E+00  6.8035618717E+00  9.6018264199E-02  9.2042210952E-02  4.5590612934E-01
  7.8127090301E+03  3.3541390240E+00  6.7763300902E+00  9.9783238489E-02  9.5534389727E-02  4.5933560246E-01
  7.9096989967E+03  3.4072791041E+00  6.7499337425E+00  1.0364652598E-01  9.9109838611E-02  4.6274219145E-01
  8.0066889632E+03  3.4606820974E+00  6.7243035927E+00  1.0761088808E-01  1.0277054358E-01  4.6612706298E-01
  8.1036789298E+03  3.5143269410E+00  6.6993332839E+00  1.1169649576E-01  1.0653427511E-01  4.6949125130E-01
  8.2006688963E+03  3.5682177277E+00  6.6750220288E+00  1.1588570855E-01  1.1038434128E-01  4.7283575145E-01
  8.2976588629E+03  3.6223816258E+00  6.6514606993E+00  1.2017987696E-01  1.1432144841E-01  4.7616154841E-01
  8.3946488294E+03  3.6767780139E+00  6.6284675885E+00  1.2458035281E-01  1.1834614232E-01  4.7946956914E-01
  8.4916387960E+03  3.7314056685E+00  6.6060230900E+00  1.2908861613E-01  1.2245914124E-01  4.8276054516E-01
  8.5886287625E+03  3.7863063380E+00  6.5842747391E+00  1.3370777143E-01  1.2666270938E-01  4.8603517989E-01
  8.6856187291E+03  3.8414308601E+00  6.5630166597E+00  1.3843742753E-01  1.3095572387E-01  4.8929416733E-01
  8.7826086957E+03  3.8967823038E+00  6.5422485507E+00  1.4327894527E-01  1.3533874393E-01  4.9253819299E-01
  8.8795986622E+03  3.9523963939E+00  6.5220928044E+00  1.4823368671E-01  1.3981240856E-01  4.9576793478E-01
  8.9765886288E+03  4.0082261730E+00  6.5023608782E+00  1.5330301521E-01  1.4437710118E-01  4.9898403949E-01
  9.0735785953E+03  4.0642876130E+00  6.4831016773E+00  1.5851136622E-01  1.4905376355E-01  5.0218698177E-01
  9.1705685619E+03  4.1205935840E+00  6.4643486244E+00  1.6384587580E-01  1.5383018268E-01  5.0537717248E-01
  9.2675585284E+03  4.1771085241E+00  6.4459630829E+00  1.6930081544E-01  1.5870038349E-01  5.0855502203E-01
  9.3645484950E+03  4.2338704962E+00  6.4280663619E+00  1.7487759635E-01  1.6366495199E-01  5.1172093999E-01
  9.4615384615E+03  4.2908526098E+00  6.4105533856E+00  1.8057763123E-01  1.6872422632E-01  5.1487533528E-01
  9.5585284281E+03  4.3480499606E+00  6.3933998057E+00  1.8640233421E-01  1.7387859592E-01  5.1801861286E-01
  9.6555183946E+03  4.4054944885E+00  6.3766970257E+00  1.9235312091E-01  1.7912857682E-01  5.2115108331E-01
  9.7525083612E+03  4.4631381345E+00  6.3602834135E+00  1.9843140836E-01  1.8447434146E-01  5.2427296718E-01
  9.8494983278E+03  4.5210271993E+00  6.3442932523E+00  2.0463861502E-01  1.8991642922E-01  5.2738448522E-01
  9.9464882943E+03  4.5791247967E+00  6.3286045355E+00  2.1097616075E-01  1.9545500372E-01  5.3048586078E-01
  1.0043478261E+04  4.6374438655E+00  6.3132488817E+00  2.1745993916E-01  2.0110279831E-01  5.3357731970E-01
  1.0140468227E+04  4.6959919536E+00  6.2982354674E+00  2.2409592030E-01  2.0686386558E-01  5.3665908686E-01
  1.0237458194E+04  4.7547408855E+00  6.2834801956E+00  2.3086820801E-01  2.1272343837E-01  5.3973131619E-01
  1.0334448161E+04  4.8137394488E+00  6.2690989400E+00  2.3777826701E-01  2.1868199948E-01  5.4279410051E-01
  1.0431438127E+04  4.8729251243E+00  6.2549250544E+00  2.4482756363E-01  2.2473945469E-01  5.4584753538E-01
  1.0528428094E+04  4.9323707107E+00  6.2411257784E+00  2.5201756580E-01  2.3089637594E-01  5.4889172031E-01
  1.0625418060E+04  4.9920056477E+00  6.2275256500E+00  2.5934974306E-01  2.3715256482E-01  5.5192675858E-01
  1.0722408027E+04  5.0518893308E+00  6.2142515435E+00  2.6682556654E-01  2.4350849147E-01  5.5495274462E-01
  1.0819397993E+04  5.1119742256E+00  6.2011901647E+00  2.7444650890E-01  2.4996401806E-01  5.5796970549E-01
  1.0916387960E+04  5.1722988629E+00  6.1884160238E+00  2.8221404438E-01  2.5651946591E-01  5.6097765026E-01
  1.1013377926E+04  5.2328341575E+00  6.1758607062E+00  2.9012964876E-01  2.6317474280E-01  5.6397659276E-01
  1.1110367893E+04  5.2936027875E+00  6.1635629013E+00  2.9819479933E-01  2.6993003983E-01  5.6696655129E-01
  1.1207357860E+04  5.3545886437E+00  6.1514830984E+00  3.0642549944E-01  2.7679713838E-01  5.6994754662E-01
  1.1304347826E+04  5.4158044758E+00  6.1396394491E+00  3.1484776959E-01  2.8379591456E-01  5.7291956363E-01
  1.1401337793E+04  5.4772407511E+00  6.1280065954E+00  3.2342644980E-01  2.9089623167E-01  5.7588255550E-01
  1.1498327759E+04  5.5389071561E+00  6.1165962569E+00  3.3216307284E-01  2.9809812490E-01  5.7883647934E-01
  1.1595317726E+04  5.6007933792E+00  6.1053836224E+00  3.4105917322E-01  3.0540146486E-01  5.8178129703E-01
  1.1692307692E+04  5.6629138805E+00  6.0943869832E+00  3.5011628724E-01  3.1280627297E-01  5.8471697407E-01
  1.1789297659E+04  5.7252492276E+00  6.0835695404E+00  3.5933595289E-01  3.2031230385E-01  5.8764344852E-01
  1.1886287625E+04  5.7878274923E+00  6.0729681286E+00  3.6871970991E-01  3.2791963024E-01  5.9056063424E-01
  1.1983277592E+04  5.8506107644E+00  6.0625224321E+00  3.7826909974E-01  3.3562781818E-01  5.9346845054E-01
  1.2080267559E+04  5.9136505954E+00  6.0522988309E+00  3.8798566552E-01  3.4343707243E-01  5.9636682171E-01
  1.2177257525E+04  5.9768801948E+00  6.0422029067E+00  3.9787095206E-01  3.5134668166E-01  5.9925567686E-01
  1.2274247492E+04  6.0403855227E+00  6.0323406770E+00  4.0792650586E-01  3.5935708056E-01  6.0213494975E-01
  1.2371237458E+04  6.1040594318E+00  6.0225739228E+00  4.1815387506E-01  3.6746717366E-01  6.0500457862E-01
  1.2468227425E+04  6.1680343561E+00  6.0130575577E+00  4.2855460946E-01  3.7567774285E-01  6.0786450606E-01
  1.2565217391E+04  6.2321762563E+00  6.0036297968E+00  4.3914693196E-01  3.8400014723E-01  6.1071467884E-01
  1.2662207358E+04  6.2966005414E+00  5.9944163250E+00  4.4992471909E-01  3.9242897600E-01  6.1355509518E-01
  1.2759197324E+04  6.3612184173E+00  5.9853161466E+00  4.6088159256E-01  4.0095703038E-01  6.1638581869E-01
  1.2856187291E+04  6.4260902906E+00  5.9763872467E+00  4.7201912905E-01  4.0958444111E-01  6.1920672459E-01
  1.2953177258E+04  6.4911934357E+00  5.9676033244E+00  4.8333890695E-01  4.1831062835E-01  6.2201767996E-01
  1.3050167224E+04  6.5565118530E+00  5.9589433782E+00  4.9484250635E-01  4.2713501616E-01  6.2481855731E-01
  1.3147157191E+04  6.6221099960E+00  5.9504650601E+00  5.0653150904E-01  4.3605775340E-01  6.2760923446E-01
  1.3244147157E+04  6.6878750564E+00  5.9420609897E+00  5.1840749850E-01  4.4507733562E-01  6.3038959441E-01
  1.3341137124E+04  6.7539760534E+00  5.9338763300E+00  5.3047205987E-01  4.5419484530E-01  6.3315952525E-01
  1.3438127090E+04  6.8202465904E+00  5.9257639258E+00  5.4272677996E-01  4.6340821792E-01  6.3591891999E-01
  1.3535117057E+04  6.8867987363E+00  5.9178132596E+00  5.5517324723E-01  4.7271797626E-01  6.3866767094E-01
  1.3632107023E+04  6.9535850531E+00  5.9099831207E+00  5.6781305177E-01  4.8212312448E-01  6.4140564295E-01
  1.3729096990E+04  7.0205842853E+00  5.9022530514E+00  5.8067553755E-01  4.9164275110E-01  6.4413269874E-01
  1.3826086957E+04  7.0878968896E+00  5.8946962372E+00  5.9378350501E-01  5.0129205720E-01  6.4684870695E-01
  1.3923076923E+04  7.1553775630E+00  5.8872018231E+00  6.0709245233E-01  5.1103566570E-01  6.4955354165E-01
  1.4020066890E+04  7.2231875843E+00  5.8798819190E+00  6.2060402479E-01  5.2087459997E-01  6.5224708227E-01
  1.4117056856E+04  7.2912061348E+00  5.8726491315E+00  6.3431986947E-01  5.3080694475E-01  6.5492921348E-01
  1.4214046823E+04  7.3594616004E+00  5.8655197305E+00  6.4824163533E-01  5.4083229229E-01  6.5759982508E-01
  1.4311036789E+04  7.4280290247E+00  5.8585406290E+00  6.6237097313E-01  5.5095077615E-01  6.6025881156E-01
  1.4408026756E+04  7.4967656791E+00  5.8516168877E+00  6.7670953542E-01  5.6116008321E-01  6.6290605798E-01
  1.4505016722E+04  7.5658497828E+00  5.8448571156E+00  6.9125897658E-01  5.7146146616E-01  6.6554143906E-01
  1.4602006689E+04  7.6351476050E+00  5.8381766712E+00  7.0602095275E-01  5.8185266092E-01  6.6816483477E-01
  1.4698996656E+04  7.7046708092E+00  5.8315801828E+00  7.2099712187E-01  5.9233298568E-01  6.7077613053E-01
  1.4795986622E+04  7.7745412304E+00  5.8251359536E+00  7.3618914363E-01  6.0290309712E-01  6.7337521712E-01
  1.4892976589E+04  7.8445825498E+00  5.8187408812E+00  7.5159867949E-01  6.1356006624E-01  6.7596199059E-01
  1.4989966555E+04  7.9149479172E+00  5.8124774028E+00  7.6722739264E-01  6.2430489658E-01  6.7853635213E-01
  1.5086956522E+04  7.9855748197E+00  5.8063093009E+00  7.8312325701E-01  6.3516645798E-01  6.8109820772E-01
  1.5183946488E+04  8.0563732959E+00  5.8001872080E+00  7.9924868977E-01  6.4611646525E-01  6.8364745810E-01
  1.5280936455E+04  8.1275925248E+00  5.7942370889E+00  8.1560013782E-01  6.5715372987E-01  6.8618399780E-01
  1.5377926421E+04  8.1989903695E+00  5.7883334798E+00  8.3217930066E-01  6.6827424699E-01  6.8870772634E-01
  1.5474916388E+04  8.2706348761E+00  5.7825086421E+00  8.4898787965E-01  6.7947793220E-01  6.9121854861E-01
  1.5571906355E+04  8.3426448713E+00  5.7768178434E+00  8.6602757799E-01  6.9076545343E-01  6.9371637469E-01
  1.5668896321E+04  8.4148288715E+00  5.7711679287E+00  8.8330010070E-01  7.0213326904E-01  6.9620111983E-01
  1.5765886288E+04  8.4873347372E+00  5.7656255248E+00  9.0080715464E-01  7.1358240055E-01  6.9867270432E-01
  1.5862876254E+04  8.5601455255E+00  5.7601808992E+00  9.1855044848E-01  7.2511166499E-01  7.0113105172E-01
  1.5959866221E+04  8.6331313984E+00  5.7547745569E+00  9.3653169268E-01  7.3671820328E-01  7.0357607912E-01
  1.6056856187E+04  8.7065070503E+00  5.7494978131E+00  9.5475259950E-01  7.4840405945E-01  7.0600770442E-01
  1.6153846154E+04  8.7801346966E+00  5.7442896910E+00  9.7321488299E-01  7.6016625327E-01  7.0842585074E-01
  1.6250836120E+04  8.8539386438E+00  5.7391174213E+00  9.9192025896E-01  7.7200257947E-01  7.1083044630E-01
  1.6347826087E+04  8.9281910591E+00  5.7340903828E+00  1.0108704450E+00  7.8391604994E-01  7.1322142432E-01
  1.6444816054E+04  9.0026520982E+00  5.7291096821E+00  1.0300671605E+00  7.9590202475E-01  7.1559872294E-01
  1.6541806020E+04  9.0772937284E+00  5.7241636885E+00  1.0495121264E+00  8.0795892813E-01  7.1796228725E-01
  1.6638795987E+04  9.1524253978E+00  5.7193700279E+00  1.0692070657E+00  8.2009049871E-01  7.2031207034E-01
  1.6735785953E+04  9.2277368190E+00  5.7146082088E+00  1.0891537029E+00  8.3229080904E-01  7.2264800668E-01
  1.6832775920E+04  9.3032500891E+00  5.7098861030E+00  1.1093537642E+00  8.4455902534E-01  7.2497003276E-01
  1.6929765886E+04  9.3792479638E+00  5.7053053154E+00  1.1298089776E+00  8.5689862402E-01  7.2727809015E-01
  1.7026755853E+04  9.4554271952E+00  5.7007543396E+00  1.1505210729E+00  8.6930356506E-01  7.2957212546E-01
  1.7123745819E+04  9.5318139875E+00  5.6962420669E+00  1.1714917814E+00  8.8177306812E-01  7.3185209022E-01
  1.7220735786E+04  9.6086957890E+00  5.6918664527E+00  1.1927228362E+00  8.9431084217E-01  7.3411794073E-01
  1.7317725753E+04  9.6857606838E+00  5.6875187465E+00  1.2142159721E+00  9.0691048754E-01  7.3636963801E-01
  1.7414715719E+04  9.7630210407E+00  5.6832028686E+00  1.2359729253E+00  9.1957097377E-01  7.3860714765E-01
  1.7511705686E+04  9.8408045675E+00  5.6790251744E+00  1.2580171808E+00  9.3230881448E-01  7.4083043973E-01
  1.7608695652E+04  9.9187730515E+00  5.6748736005E+00  1.2804902055E+00  9.4519279112E-01  7.4303948869E-01
  1.7705685619E+04  9.9969259099E+00  5.6707478411E+00  1.3032377346E+00  9.5813519829E-01  7.4523427324E-01
  1.7802675585E+04  1.0075605005E+01  5.6667546937E+00  1.3262615864E+00  9.7114105000E-01  7.4741477623E-01
  1.7899665552E+04  1.0154491901E+01  5.6627925752E+00  1.3495635810E+00  9.8420335626E-01  7.4958097501E-01
  1.7996655518E+04  1.0233565137E+01  5.6588546156E+00  1.3731455405E+00  9.9732041421E-01  7.5173283533E-01
  1.8093645485E+04  1.0313118631E+01  5.6550296645E+00  1.3970092892E+00  1.0104965675E+00  7.5387033602E-01
  1.8190635452E+04  1.0392936930E+01  5.6512507272E+00  1.4211566529E+00  1.0237265333E+00  7.5599346046E-01
  1.8287625418E+04  1.0472943603E+01  5.6474943904E+00  1.4455894598E+00  1.0370075354E+00  7.5810219629E-01
  1.8384615385E+04  1.0553361953E+01  5.6438260005E+00  1.4703095397E+00  1.0503427217E+00  7.6019653531E-01
  1.8481605351E+04  1.0634124747E+01  5.6402243107E+00  1.4953187243E+00  1.0637295834E+00  7.6227646155E-01
  1.8578595318E+04  1.0715078020E+01  5.6366437534E+00  1.5206188475E+00  1.0771637420E+00  7.6434190444E-01
  1.8675585284E+04  1.0796350243E+01  5.6331207206E+00  1.5462117447E+00  1.0906465375E+00  7.6639292642E-01
  1.8772575251E+04  1.0878070746E+01  5.6296906615E+00  1.5720992536E+00  1.1041794743E+00  7.6842961783E-01
  1.8869565217E+04  1.0959983903E+01  5.6262803509E+00  1.5982832135E+00  1.1177559572E+00  7.7045206915E-01
  1.8966555184E+04  1.1042097528E+01  5.6228918730E+00  1.6247654657E+00  1.1313748137E+00  7.7246037094E-01
  1.9063545151E+04  1.1124789067E+01  5.6196281230E+00  1.6515478532E+00  1.1450429835E+00  7.7445461388E-01
  1.9160535117E+04  1.1207675504E+01  5.6163828161E+00  1.6786322211E+00  1.1587509491E+00  7.7643486765E-01
  1.9257525084E+04  1.1290756307E+01  5.6131557554E+00  1.7060204162E+00  1.1724973575E+00  7.7840113984E-01
  1.9354515050E+04  1.1374292534E+01  5.6100159790E+00  1.7337142871E+00  1.1862867965E+00  7.8035343038E-01
  1.9451505017E+04  1.1458165754E+01  5.6069307029E+00  1.7617156843E+00  1.2001154275E+00  7.8229174308E-01
  1.9548494983E+04  1.1542235660E+01  5.6038624567E+00  1.7900264603E+00  1.2139787671E+00  7.8421608552E-01
  1.9645484950E+04  1.1626592591E+01  5.6008343909E+00  1.8186484691E+00  1.2278776020E+00  7.8612646893E-01
  1.9742474916E+04  1.1711466194E+01  5.5979044256E+00  1.8475835666E+00  1.2418161376E+00  7.8802290811E-01
  1.9839464883E+04  1.1796538874E+01  5.5949903408E+00  1.8768336107E+00  1.2557856743E+00  7.8990542129E-01
  1.9936454849E+04  1.1881810119E+01  5.5920919735E+00  1.9064004609E+00  1.2697848734E+00  7.9177403004E-01
  2.0033444816E+04  1.1967586633E+01  5.5892851809E+00  1.9363009299E+00  1.2838265174E+00  7.9362875914E-01
  2.0130434783E+04  1.2053675460E+01  5.5865208067E+00  1.9665511215E+00  1.2979107773E+00  7.9546963650E-01
  2.0227424749E+04  1.2139965314E+01  5.5837710770E+00  1.9971248872E+00  1.3120211972E+00  7.9729669259E-01
  2.0324414716E+04  1.2226534486E+01  5.5810548535E+00  2.0280241083E+00  1.3261584493E+00  7.9910994956E-01
  2.0421404682E+04  1.2313650728E+01  5.5784357941E+00  2.0592506681E+00  1.3403281634E+00  8.0090943106E-01
  2.0518394649E+04  1.2400970503E+01  5.5758303647E+00  2.0908064518E+00  1.3545204120E+00  8.0269516625E-01
  2.0615384615E+04  1.2488493323E+01  5.5732384303E+00  2.1226933462E+00  1.3687338838E+00  8.0446718742E-01
  2.0712374582E+04  1.2576466562E+01  5.5707178211E+00  2.1549132400E+00  1.3829738425E+00  8.0622552980E-01
  2.0809364548E+04  1.2664826798E+01  5.5682525080E+00  2.1874680238E+00  1.3972375115E+00  8.0797022958E-01
  2.0906354515E+04  1.2753392628E+01  5.5657997422E+00  2.2203595899E+00  1.4115188549E+00  8.0970133528E-01
  2.1003344482E+04  1.2842163573E+01  5.5633594021E+00  2.2535898322E+00  1.4258165874E+00  8.1141892796E-01
  2.1100334448E+04  1.2931533803E+01  5.5610208622E+00  2.2871606468E+00  1.4401403270E+00  8.1312309186E-01
  2.1197324415E+04  1.3021153179E+01  5.5587033304E+00  2.3210739311E+00  1.4544793799E+00  8.1481391182E-01
  2.1294314381E+04  1.3110980264E+01  5.5563973378E+00  2.3553315847E+00  1.4688313645E+00  8.1649147328E-01
  2.1391304348E+04  1.3201089790E+01  5.5541194394E+00  2.3899355086E+00  1.4831971640E+00  8.1815583104E-01
  2.1488294314E+04  1.3291773200E+01  5.5519333904E+00  2.4248876057E+00  1.4975839725E+00  8.1980700857E-01
  2.1585284281E+04  1.3382666951E+01  5.5497580409E+00  2.4601897807E+00  1.5119803331E+00  8.2144504612E-01
  2.1682274247E+04  1.3473770583E+01  5.5475932907E+00  2.4958439399E+00  1.5263850179E+00  8.2306998663E-01
  2.1779264214E+04  1.3565249544E+01  5.5454747243E+00  2.5318519915E+00  1.5408017026E+00  8.2468187562E-01
  2.1876254181E+04  1.3657220437E+01  5.5434264830E+00  2.5682158453E+00  1.5552327978E+00  8.2628076111E-01
  2.1973244147E+04  1.3749403885E+01  5.5413880542E+00  2.6049374128E+00  1.5696689504E+00  8.2786669348E-01
  2.2070234114E+04  1.3841799439E+01  5.5393593478E+00  2.6420186072E+00  1.5841089706E+00  8.2943972544E-01
  2.2167224080E+04  1.3934636117E+01  5.5373881962E+00  2.6794613437E+00  1.5985586916E+00  8.3099991186E-01
  2.2264214047E+04  1.4027909840E+01  5.5354727539E+00  2.7172675387E+00  1.6130170146E+00  8.3254730971E-01
  2.2361204013E+04  1.4121398386E+01  5.5335662960E+00  2.7554404351E+00  1.6274765237E+00  8.3408197791E-01
  2.2458193980E+04  1.4215101316E+01  5.5316687417E+00  2.7942372081E+00  1.6420242069E+00  8.3560397314E-01
  2.2555183946E+04  1.4309282342E+01  5.5298335977E+00  2.8334092763E+00  1.6565789529E+00  8.3711334773E-01
  2.2652173913E+04  1.4403874314E+01  5.5280462387E+00  2.8729586293E+00  1.6711376945E+00  8.3861015569E-01
  2.2749163880E+04  1.4498683432E+01  5.5262670904E+00  2.9128872588E+00  1.6856932328E+00  8.4009445322E-01
  2.2846153846E+04  1.4593709264E+01  5.5244960802E+00  2.9531971582E+00  1.7002444410E+00  8.4156629858E-01
  2.2943143813E+04  1.4689219577E+01  5.5227860103E+00  2.9938903229E+00  1.7147989560E+00  8.4302575200E-01
  2.3040133779E+04  1.4785145287E+01  5.5211222902E+00  3.0349687501E+00  1.7293536231E+00  8.4447287562E-01
  2.3137123746E+04  1.4881290515E+01  5.5194660571E+00  3.0764344389E+00  1.7439010232E+00  8.4590773334E-01
  2.3234113712E+04  1.4977654840E+01  5.5178172461E+00  3.1182893905E+00  1.7584400772E+00  8.4733039080E-01
  2.3331103679E+04  1.5074477652E+01  5.5162217564E+00  3.1605356076E+00  1.7729777832E+00  8.4874091523E-01
  2.3428093645E+04  1.5171752646E+01  5.5146774822E+00  3.2031750949E+00  1.7875130674E+00  8.5013937327E-01
  2.3525083612E+04  1.5269249583E+01  5.5131400177E+00  3.2462098592E+00  1.8020372157E+00  8.5152582659E-01
  2.3622073579E+04  1.5366968052E+01  5.5116093047E+00  3.2896419089E+00  1.8165491987E+00  8.5290033738E-01
  2.3719063545E+04  1.5465084799E+01  5.5101183107E+00  3.3334732542E+00  1.8310541292E+00  8.5426296963E-01
  2.3816053512E+04  1.5563724679E+01  5.5086895227E+00  3.3777059072E+00  1.8455554973E+00  8.5561378901E-01
  2.3913043478E+04  1.5662588979E+01  5.5072669099E+00  3.4223418821E+00  1.8600420621E+00  8.5695286278E-01
  2.4010033445E+04  1.5761677296E+01  5.5058504206E+00  3.4673831944E+00  1.8745128452E+00  8.5828025968E-01
  2.4107023411E+04  1.5861067601E+01  5.5044542182E+00  3.5128318619E+00  1.8889696663E+00  8.5959604991E-01
  2.4204013378E+04  1.5961088015E+01  5.5031371736E+00  3.5586899040E+00  1.9034233822E+00  8.6090030498E-01
  2.4301003344E+04  1.6061335378E+01  5.5018257094E+00  3.6049593420E+00  1.9178588335E+00  8.6219309766E-01
  2.4397993311E+04  1.6161809295E+01  5.5005197798E+00  3.6516421987E+00  1.9322750937E+00  8.6347449900E-01
  2.4494983278E+04  1.6262509375E+01  5.4992193395E+00  3.6987404992E+00  1.9466712496E+00  8.6474457599E-01
  2.4591973244E+04  1.6363867562E+01  5.4980001781E+00  3.7462562700E+00  1.9610622582E+00  8.6600339646E-01
  2.4688963211E+04  1.6465513728E+01  5.4967963582E+00  3.7941915395E+00  1.9754338804E+00  8.6725102966E-01
  2.4785953177E+04  1.6567389036E+01  5.4955975202E+00  3.8425483380E+00  1.9897831119E+00  8.6848754614E-01
  2.4882943144E+04  1.6669493103E+01  5.4944036242E+00  3.8913286973E+00  2.0041090924E+00  8.6971301772E-01
  2.4979933110E+04  1.6772085978E+01  5.4932591746E+00  3.9405346513E+00  2.0184207602E+00  8.7092751735E-01
  2.5076923077E+04  1.6875145836E+01  5.4921596453E+00  3.9902581268E+00  2.0327399693E+00  8.7213111906E-01
  2.5173913043E+04  1.6978437466E+01  5.4910645791E+00  4.0404368972E+00  2.0470398681E+00  8.7332389791E-01
  2.5270903010E+04  1.7081960492E+01  5.4899739411E+00  4.0910498254E+00  2.0613135560E+00  8.7450593432E-01
  2.5367892977E+04  1.7185761150E+01  5.4888955435E+00  4.1420989768E+00  2.0755620350E+00  8.7567730836E-01
  2.5464882943E+04  1.7290243646E+01  5.4878968990E+00  4.1935864184E+00  2.0898002746E+00  8.7683808617E-01
  2.5561872910E+04  1.7394960537E+01  5.4869022315E+00  4.2455142189E+00  2.1040103126E+00  8.7798833478E-01
  2.5658862876E+04  1.7499911456E+01  5.4859115102E+00  4.2978844492E+00  2.1181913890E+00  8.7912812251E-01
  2.5755852843E+04  1.7605096038E+01  5.4849247047E+00  4.3506991817E+00  2.1323427568E+00  8.8025751889E-01
  2.5852842809E+04  1.7710804053E+01  5.4839897769E+00  4.4039604906E+00  2.1464752966E+00  8.8137659456E-01
  2.5949832776E+04  1.7816952409E+01  5.4830922157E+00  4.4576704521E+00  2.1605851363E+00  8.8248542121E-01
  2.6046822742E+04  1.7923337397E+01  5.4821981489E+00  4.5118311441E+00  2.1746634700E+00  8.8358407151E-01
  2.6143812709E+04  1.8029958659E+01  5.4813075502E+00  4.5664446463E+00  2.1887096034E+00  8.8467261902E-01
  2.6240802676E+04  1.8136816878E+01  5.4804205631E+00  4.6215130400E+00  2.2027228982E+00  8.8575113815E-01
  2.6337792642E+04  1.8244402501E+01  5.4796169794E+00  4.6770384086E+00  2.2167229957E+00  8.8681970406E-01
  2.6434782609E+04  1.8352227331E+01  5.4788164668E+00  4.7330228370E+00  2.2306892463E+00  8.8787839260E-01
  2.6531772575E+04  1.8460291017E+01  5.4780190022E+00  4.7894684120E+00  2.2446210076E+00  8.8892728028E-01
  2.6628762542E+04  1.8568593214E+01  5.4772245629E+00  4.8463772222E+00  2.2585176500E+00  8.8996644417E-01
  2.6725752508E+04  1.8677299066E+01  5.4764597656E+00  4.9037513579E+00  2.2723855931E+00  8.9099596186E-01
  2.6822742475E+04  1.8786569116E+01  5.4757498581E+00  4.9615929111E+00  2.2862311966E+00  8.9201591138E-01
  2.6919732441E+04  1.8896080578E+01  5.4750426044E+00  5.0199039756E+00  2.3000402200E+00  8.9302637120E-01
  2.7016722408E+04  1.9005833110E+01  5.4743379851E+00  5.0786866470E+00  2.3138120842E+00  8.9402741838E-01
  2.7113712375E+04  1.9115826375E+01  5.4736359812E+00  5.1379430225E+00  2.3275462225E+00  8.9501912194E-01
  2.7210702341E+04  1.9226349549E+01  5.4729824536E+00  5.1976752011E+00  2.3412547703E+00  8.9600154934E-01
  2.7307692308E+04  1.9337313743E+01  5.4723626277E+00  5.2578852837E+00  2.3549334432E+00  8.9697476887E-01
  2.7404682274E+04  1.9448521538E+01  5.4717450691E+00  5.3185823498E+00  2.3685744921E+00  8.9793884967E-01
  2.7501672241E+04  1.9559972604E+01  5.4711297617E+00  5.3797914122E+00  2.3821818436E+00  8.9889386159E-01
  2.7598662207E+04  1.9671666612E+01  5.4705166893E+00  5.4414854442E+00  2.3957491455E+00  8.9983987514E-01
  2.7695652174E+04  1.9783975945E+01  5.4699640258E+00  5.5036665607E+00  2.4092927198E+00  9.0077696147E-01
  2.7792642140E+04  1.9896643541E+01  5.4694308982E+00  5.5663368785E+00  2.4228006446E+00  9.0170519227E-01
  2.7889632107E+04  2.0009556913E+01  5.4688996796E+00  5.6294985160E+00  2.4362674067E+00  9.0262463971E-01
  2.7986622074E+04  2.0122715740E+01  5.4683703564E+00  5.6931535934E+00  2.4496925459E+00  9.0353537642E-01
  2.8083612040E+04  2.0236119703E+01  5.4678429155E+00  5.7573042327E+00  2.4630756141E+00  9.0443747540E-01
  2.8180602007E+04  2.0350183284E+01  5.4673811897E+00  5.8219525574E+00  2.4764354163E+00  9.0533100999E-01
  2.8277591973E+04  2.0464563081E+01  5.4669315721E+00  5.8871006929E+00  2.4897557552E+00  9.0621605383E-01
  2.8374581940E+04  2.0579190812E+01  5.4664835308E+00  5.9527507661E+00  2.5030330743E+00  9.0709268076E-01
  2.8471571906E+04  2.0694066167E+01  5.4660370550E+00  6.0189049058E+00  2.5162669698E+00  9.0796096484E-01
  2.8568561873E+04  2.0809188832E+01  5.4655921338E+00  6.0855652425E+00  2.5294570495E+00  9.0882098028E-01
  2.8665551839E+04  2.0924974110E+01  5.4652118663E+00  6.1527339082E+00  2.5426227287E+00  9.0967279924E-01
  2.8762541806E+04  2.1041074446E+01  5.4648427509E+00  6.2204130367E+00  2.5557472305E+00  9.1051648746E-01
  2.8859531773E+04  2.1157424858E+01  5.4644749030E+00  6.2886047635E+00  2.5688271233E+00  9.1135210998E-01
  2.8956521739E+04  2.1274025041E+01  5.4641083139E+00  6.3573112258E+00  2.5818620570E+00  9.1217973234E-01
  2.9053511706E+04  2.1390874693E+01  5.4637429751E+00  6.4265345623E+00  2.5948516923E+00  9.1299942059E-01
  2.9150501672E+04  2.1508348584E+01  5.4634351039E+00  6.4962769136E+00  2.6078140246E+00  9.1381124117E-01
  2.9247491639E+04  2.1626177336E+01  5.4631436503E+00  6.5665404217E+00  2.6207357082E+00  9.1461526089E-01
  2.9344481605E+04  2.1744258286E+01  5.4628531770E+00  6.6373272306E+00  2.6336114468E+00  9.1541154690E-01
  2.9441471572E+04  2.1862591137E+01  5.4625636776E+00  6.7086394857E+00  2.6464409410E+00  9.1620016661E-01
  2.9538461538E+04  2.1981175595E+01  5.4622751457E+00  6.7804793341E+00  2.6592239012E+00  9.1698118763E-01
  2.9635451505E+04  2.2100304591E+01  5.4620309990E+00  6.8528489246E+00  2.6719747262E+00  9.1775467780E-01
  2.9732441472E+04  2.2219869174E+01  5.4618145216E+00  6.9257504075E+00  2.6846878063E+00  9.1852070507E-01
  2.9829431438E+04  2.2339688055E+01  5.4615987576E+00  6.9991859350E+00  2.6973538432E+00  9.1927933750E-01
  2.9926421405E+04  2.2459760947E+01  5.4613837026E+00  7.0731576606E+00  2.7099725849E+00  9.2003064321E-01
  3.0023411371E+04  2.2580087560E+01  5.4611693519E+00  7.1477684057E+00  2.7225583939E+00  9.2077469036E-01
  3.0120401338E+04  2.2700837641E+01  5.4609806003E+00  7.2232406279E+00  2.7351508283E+00  9.2151154709E-01
  3.0217391304E+04  2.2822144427E+01  5.4608364934E+00  7.2992629558E+00  2.7477105459E+00  9.2224127950E-01
  3.0314381271E+04  2.2943707586E+01  5.4606928520E+00  7.3758376107E+00  2.7602219832E+00  9.2296394859E-01
  3.0411371237E+04  2.3065526836E+01  5.4605496733E+00  7.4529668155E+00  2.7726849274E+00  9.2367961485E-01
  3.0508361204E+04  2.3187601898E+01  5.4604069542E+00  7.5306527952E+00  2.7850991746E+00  9.2438833907E-01
  3.0605351171E+04  2.3309938847E+01  5.4602656133E+00  7.6088977762E+00  2.7974648634E+00  9.2509018231E-01
  3.0702341137E+04  2.3432992280E+01  5.4601912534E+00  7.6877039870E+00  2.8098057270E+00  9.2578520583E-01
  3.0799331104E+04  2.3556304121E+01  5.4601171291E+00  7.7670736577E+00  2.8220976177E+00  9.2647347106E-01
  3.0896321070E+04  2.3679874097E+01  5.4600432388E+00  7.8470090200E+00  2.8343403646E+00  9.2715503956E-01
  3.0993311037E+04  2.3803701935E+01  5.4599695810E+00  7.9275123078E+00  2.8465338054E+00  9.2782997300E-01
  3.1090301003E+04  2.3927787364E+01  5.4598961545E+00  8.0085857562E+00  2.8586777860E+00  9.2849833310E-01
  3.1187290970E+04  2.4052395247E+01  5.4598608747E+00  8.0902316026E+00  2.8707864203E+00  9.2916018161E-01
