#[MATERIAL DEFINITION FOR MC-GPU: interaction mean free path and sampling data from PENELOPE 2006]
#[MATERIAL NAME]
# MATERIAL12                                                    
#[NOMINAL DENSITY (g/cm^3)]
#   1.00000000
#[NUMBER OF DATA VALUES]
#   1495
#[MEAN FREE PATHS (cm) (ie, average distance between interactions)]
#[Energy (eV)     | Rayleigh        | Compton         | Photoelectric   | TOTAL (+pair prod) (cm) | Rayleigh: max cumul prob F^2]
  5.0000000000E+03  1.7042512111E+00  8.1262803466E+00  1.1378638731E-02  1.1287471542E-02  2.8654835414E-01
  5.0969899666E+03  1.7382868512E+00  8.0603135225E+00  1.2000028731E-02  1.1900160862E-02  2.9143636806E-01
  5.1939799331E+03  1.7725715063E+00  7.9970672345E+00  1.2642500883E-02  1.2533295944E-02  2.9626808316E-01
  5.2909698997E+03  1.8070999335E+00  7.9363819276E+00  1.3306348236E-02  1.3187136547E-02  3.0104580063E-01
  5.3879598662E+03  1.8418668078E+00  7.8781094309E+00  1.3991862130E-02  1.3861939593E-02  3.0577175457E-01
  5.4849498328E+03  1.8768667411E+00  7.8221119759E+00  1.4699524890E-02  1.4558148148E-02  3.1044811677E-01
  5.5819397993E+03  1.9120942995E+00  7.7682613156E+00  1.5431758499E-02  1.5278104778E-02  3.1507700129E-01
  5.6789297659E+03  1.9475440209E+00  7.7164379332E+00  1.6186709351E-02  1.6019957035E-02  3.1966042498E-01
  5.7759197324E+03  1.9832104328E+00  7.6665303284E+00  1.6964709259E-02  1.6783996099E-02  3.2420020001E-01
  5.8729096990E+03  2.0190880686E+00  7.6184343738E+00  1.7766062223E-02  1.7570484527E-02  3.2869808914E-01
  5.9698996656E+03  2.0551714905E+00  7.5720527287E+00  1.8591005400E-02  1.8379618167E-02  3.3315581195E-01
  6.0668896321E+03  2.0914556051E+00  7.5272940687E+00  1.9441913441E-02  1.9213679289E-02  3.3757498971E-01
  6.1638795987E+03  2.1279362060E+00  7.4840722182E+00  2.0318096760E-02  2.0071952220E-02  3.4195710731E-01
  6.2608695652E+03  2.1646099211E+00  7.4423058414E+00  2.1221696065E-02  2.0956482759E-02  3.4630360833E-01
  6.3578595318E+03  2.2014734506E+00  7.4019186962E+00  2.2158645232E-02  2.1873005533E-02  3.5061592898E-01
  6.4548494983E+03  2.2385329083E+00  7.3628741261E+00  2.3121654959E-02  2.2814362937E-02  3.5489531183E-01
  6.5518394649E+03  2.2757871760E+00  7.3251113172E+00  2.4114746287E-02  2.3784421403E-02  3.5914286785E-01
  6.6488294314E+03  2.3132232815E+00  7.2885307039E+00  2.5136188665E-02  2.4781441427E-02  3.6335969255E-01
  6.7458193980E+03  2.3508378570E+00  7.2530726161E+00  2.6184997841E-02  2.5804414345E-02  3.6754686694E-01
  6.8428093645E+03  2.3886275713E+00  7.2186810000E+00  2.7261491509E-02  2.6853597306E-02  3.7170545842E-01
  6.9397993311E+03  2.4265891415E+00  7.1853031744E+00  2.8365986293E-02  2.7929244625E-02  3.7583648212E-01
  7.0367892977E+03  2.4647203635E+00  7.1528930365E+00  2.9501120033E-02  2.9033857268E-02  3.7994073585E-01
  7.1337792642E+03  2.5030490808E+00  7.1215038157E+00  3.0668946768E-02  3.0169367334E-02  3.8401895095E-01
  7.2307692308E+03  2.5415435941E+00  7.0909890937E+00  3.1866104973E-02  3.1332451344E-02  3.8807185560E-01
  7.3277591973E+03  2.5802018204E+00  7.0613070276E+00  3.3092916343E-02  3.2523360018E-02  3.9210017458E-01
  7.4247491639E+03  2.6190216345E+00  7.0324182500E+00  3.4349701594E-02  3.3742341139E-02  3.9610462886E-01
  7.5217391304E+03  2.6580193380E+00  7.0043389921E+00  3.5636780482E-02  3.4989644075E-02  4.0008585703E-01
  7.6187290970E+03  2.6971995538E+00  6.9770484204E+00  3.6954471813E-02  3.6265513056E-02  4.0404434622E-01
  7.7157190635E+03  2.7365371298E+00  6.9504451629E+00  3.8303093462E-02  3.7570181711E-02  4.0798057125E-01
  7.8127090301E+03  2.7760297778E+00  6.9244979957E+00  3.9682962384E-02  3.8903886037E-02  4.1189500925E-01
  7.9096989967E+03  2.8157046945E+00  6.8992534742E+00  4.1094394624E-02  4.0266867642E-02  4.1578813932E-01
  8.0066889632E+03  2.8555526702E+00  6.8746595553E+00  4.2539265705E-02  4.1660852049E-02  4.1966041317E-01
  8.1036789298E+03  2.8955514021E+00  6.8506363637E+00  4.4038109519E-02  4.3105428342E-02  4.2351215666E-01
  8.2006688963E+03  2.9357081343E+00  6.8271815599E+00  4.5570820059E-02  4.4581213013E-02  4.2734366852E-01
  8.2976588629E+03  2.9760619437E+00  6.8043616961E+00  4.7137743098E-02  4.6088467999E-02  4.3115525278E-01
  8.3946488294E+03  3.0165637256E+00  6.7820406728E+00  4.8739223704E-02  4.7627422809E-02  4.3494721822E-01
  8.4916387960E+03  3.0572131785E+00  6.7602021423E+00  5.0375612694E-02  4.9198325496E-02  4.3871985279E-01
  8.5886287625E+03  3.0980721417E+00  6.7389560534E+00  5.2047342061E-02  5.0801522769E-02  4.4247335069E-01
  8.6856187291E+03  3.1390758205E+00  6.7181468762E+00  5.3754665619E-02  5.2437141892E-02  4.4620789050E-01
  8.7826086957E+03  3.1802297984E+00  6.6977728199E+00  5.5497925837E-02  5.4105417743E-02  4.4992365737E-01
  8.8795986622E+03  3.2215919602E+00  6.6779262883E+00  5.7277464524E-02  5.5806604677E-02  4.5362084191E-01
  8.9765886288E+03  3.2630948632E+00  6.6584631144E+00  5.9093622833E-02  5.7540901728E-02  4.5729959934E-01
  9.0735785953E+03  3.3047650747E+00  6.6394194408E+00  6.0955798303E-02  5.9317120541E-02  4.6096002545E-01
  9.1705685619E+03  3.3466277156E+00  6.6208210361E+00  6.2858697140E-02  6.1130133093E-02  4.6460221795E-01
  9.2675585284E+03  3.3886269717E+00  6.6025600840E+00  6.4799863330E-02  6.2977477557E-02  4.6822628151E-01
  9.3645484950E+03  3.4308283918E+00  6.5847303792E+00  6.6779648797E-02  6.4859409675E-02  4.7183231829E-01
  9.4615384615E+03  3.4731905066E+00  6.5672501140E+00  6.8798404897E-02  6.6776129845E-02  4.7542037938E-01
  9.5585284281E+03  3.5157061422E+00  6.5500990777E+00  7.0856624822E-02  6.8727985117E-02  4.7899050178E-01
  9.6555183946E+03  3.5584347549E+00  6.5333500225E+00  7.2954575090E-02  7.0715142472E-02  4.8254272998E-01
  9.7525083612E+03  3.6012936606E+00  6.5168738801E+00  7.5092556616E-02  7.2737721010E-02  4.8607712023E-01
  9.8494983278E+03  3.6443684515E+00  6.5007779606E+00  7.7270918752E-02  7.4795976773E-02  4.8959371947E-01
  9.9464882943E+03  3.6875955049E+00  6.4849643357E+00  7.9490010313E-02  7.6890076856E-02  4.9309250244E-01
  1.0043478261E+04  3.7310001085E+00  6.4694578867E+00  8.1759654701E-02  7.9029089525E-02  4.9657344438E-01
  1.0140468227E+04  3.7745984832E+00  6.4542667024E+00  8.4083109670E-02  8.1215898980E-02  5.0003652859E-01
  1.0237458194E+04  3.8183392073E+00  6.4393210099E+00  8.6449352656E-02  8.3440022184E-02  5.0348174610E-01
  1.0334448161E+04  3.8623130396E+00  6.4247170153E+00  8.8858750410E-02  8.5701723439E-02  5.0690909522E-01
  1.0431438127E+04  3.9064056141E+00  6.4103158728E+00  9.1311669247E-02  8.8001124631E-02  5.1031858115E-01
  1.0528428094E+04  3.9507506529E+00  6.3962575330E+00  9.3808475051E-02  9.0338516699E-02  5.1371021101E-01
  1.0625418060E+04  3.9952202306E+00  6.3823946235E+00  9.6349533281E-02  9.2714000158E-02  5.1708394084E-01
  1.0722408027E+04  4.0399225188E+00  6.3688341888E+00  9.8935208968E-02  9.5127844851E-02  5.2043970435E-01
  1.0819397993E+04  4.0847723577E+00  6.3554802510E+00  1.0156586673E-01  9.7580171112E-02  5.2377744429E-01
  1.0916387960E+04  4.1298394605E+00  6.3423962044E+00  1.0424187076E-01  1.0007121599E-01  5.2709711128E-01
  1.1013377926E+04  4.1750723183E+00  6.3295236965E+00  1.0696358485E-01  1.0260111583E-01  5.3039866351E-01
  1.1110367893E+04  4.2205119009E+00  6.3168958343E+00  1.0973137239E-01  1.0517007956E-01  5.3368206639E-01
  1.1207357860E+04  4.2661300123E+00  6.3044788034E+00  1.1255212996E-01  1.0778424542E-01  5.3694729222E-01
  1.1304347826E+04  4.3119498356E+00  6.2922881332E+00  1.1543721655E-01  1.1045383862E-01  5.4019430182E-01
  1.1401337793E+04  4.3579548901E+00  6.2803020968E+00  1.1837048483E-01  1.1316383586E-01  5.4342302259E-01
  1.1498327759E+04  4.4041628053E+00  6.2685307457E+00  1.2135231518E-01  1.1591442460E-01  5.4663338618E-01
  1.1595317726E+04  4.4505559248E+00  6.2569525838E+00  1.2438308764E-01  1.1870575414E-01  5.4982533197E-01
  1.1692307692E+04  4.4971598693E+00  6.2455837145E+00  1.2746318196E-01  1.2153801303E-01  5.5299880682E-01
  1.1789297659E+04  4.5439415856E+00  6.2343915711E+00  1.3059297756E-01  1.2441132588E-01  5.5615376476E-01
  1.1886287625E+04  4.5909495780E+00  6.2234093063E+00  1.3377285355E-01  1.2732589866E-01  5.5929016673E-01
  1.1983277592E+04  4.6381198104E+00  6.2125824998E+00  1.3700318873E-01  1.3028181282E-01  5.6240796750E-01
  1.2080267559E+04  4.6855399465E+00  6.2019718521E+00  1.4028436160E-01  1.3327931215E-01  5.6550710040E-01
  1.2177257525E+04  4.7330979795E+00  6.1914907933E+00  1.4361675036E-01  1.3631841213E-01  5.6858750394E-01
  1.2274247492E+04  4.7809384274E+00  6.1812376024E+00  1.4700073289E-01  1.3939941933E-01  5.7164912408E-01
  1.2371237458E+04  4.8288828880E+00  6.1710837193E+00  1.5043668679E-01  1.4252225568E-01  5.7469191391E-01
  1.2468227425E+04  4.8771518996E+00  6.1611746074E+00  1.5392498934E-01  1.4568732057E-01  5.7771583343E-01
  1.2565217391E+04  4.9255237651E+00  6.1513580073E+00  1.5748874917E-01  1.4891478899E-01  5.8072085223E-01
  1.2662207358E+04  4.9741871666E+00  6.1417530505E+00  1.6111777959E-01  1.5219547708E-01  5.8370695824E-01
  1.2759197324E+04  5.0229981804E+00  6.1322637426E+00  1.6480161639E-01  1.5551959612E-01  5.8667410458E-01
  1.2856187291E+04  5.0720513832E+00  6.1229454687E+00  1.6854065764E-01  1.5888739613E-01  5.8962224331E-01
  1.2953177258E+04  5.1213115391E+00  6.1137729890E+00  1.7233530122E-01  1.6229895116E-01  5.9255133349E-01
  1.3050167224E+04  5.1707518017E+00  6.1047263732E+00  1.7618594478E-01  1.6575433735E-01  5.9546134096E-01
  1.3147157191E+04  5.2204712517E+00  6.0958608418E+00  1.8009298581E-01  1.6925381181E-01  5.9835223814E-01
  1.3244147157E+04  5.2702980622E+00  6.0870732073E+00  1.8405682156E-01  1.7279722566E-01  6.0122399647E-01
  1.3341137124E+04  5.3204839216E+00  6.0785034700E+00  1.8807784910E-01  1.7638506506E-01  6.0407657715E-01
  1.3438127090E+04  5.3707821121E+00  6.0700094970E+00  1.9215646529E-01  1.8001704886E-01  6.0690994614E-01
  1.3535117057E+04  5.4213552970E+00  6.0616780383E+00  1.9629306681E-01  1.8369352646E-01  6.0972407613E-01
  1.3632107023E+04  5.4721352715E+00  6.0534690078E+00  2.0048805014E-01  1.8741448029E-01  6.1251894634E-01
  1.3729096990E+04  5.5230902335E+00  6.0453626441E+00  2.0474393007E-01  1.9118178654E-01  6.1529454237E-01
  1.3826086957E+04  5.5743624755E+00  6.0374302604E+00  2.0906269976E-01  1.9499714851E-01  6.1805086391E-01
  1.3923076923E+04  5.6257472809E+00  6.0295636279E+00  2.1344122517E-01  1.9885720057E-01  6.2078789218E-01
  1.4020066890E+04  5.6774677232E+00  6.0218726242E+00  2.1787990436E-01  2.0276241189E-01  6.2350560031E-01
  1.4117056856E+04  5.7293574220E+00  6.0142714634E+00  2.2237913522E-01  2.0671255297E-01  6.2620396820E-01
  1.4214046823E+04  5.7814540388E+00  6.0067762648E+00  2.2693931547E-01  2.1070775275E-01  6.2888298232E-01
  1.4311036789E+04  5.8338593310E+00  5.9994332109E+00  2.3156084261E-01  2.1474826829E-01  6.3154263545E-01
  1.4408026756E+04  5.8863808644E+00  5.9921486411E+00  2.3624411398E-01  2.1883377996E-01  6.3418292651E-01
  1.4505016722E+04  5.9392550814E+00  5.9850301260E+00  2.4098952673E-01  2.2296480686E-01  6.3680386037E-01
  1.4602006689E+04  5.9923051910E+00  5.9779937293E+00  2.4579747784E-01  2.2714104305E-01  6.3940544759E-01
  1.4698996656E+04  6.0455456892E+00  5.9710441477E+00  2.5066836409E-01  2.3136255340E-01  6.4198770427E-01
  1.4795986622E+04  6.0991352671E+00  5.9642493599E+00  2.5560258210E-01  2.3562971502E-01  6.4455065186E-01
  1.4892976589E+04  6.1528450822E+00  5.9575066243E+00  2.6060052831E-01  2.3994206883E-01  6.4709431313E-01
  1.4989966555E+04  6.2068707951E+00  5.9508984134E+00  2.6566259896E-01  2.4430007012E-01  6.4961869458E-01
  1.5086956522E+04  6.2611329694E+00  5.9443884282E+00  2.7083750105E-01  2.4874432242E-01  6.5212380246E-01
  1.5183946488E+04  6.3155172382E+00  5.9379272133E+00  2.7608456269E-01  2.5323971188E-01  6.5460964912E-01
  1.5280936455E+04  6.3703314643E+00  5.9316413083E+00  2.8139872058E-01  2.5778235039E-01  6.5707625269E-01
  1.5377926421E+04  6.4252770384E+00  5.9254045965E+00  2.8678039549E-01  2.6237154892E-01  6.5952363687E-01
  1.5474916388E+04  6.4804347512E+00  5.9192495814E+00  2.9223000813E-01  2.6700750877E-01  6.6195183076E-01
  1.5571906355E+04  6.5359458616E+00  5.9132319478E+00  2.9774797911E-01  2.7169059929E-01  6.6436086863E-01
  1.5668896321E+04  6.5915833687E+00  5.9072577398E+00  3.0333472895E-01  2.7642024477E-01  6.6675078974E-01
  1.5765886288E+04  6.6475164904E+00  5.9013943237E+00  3.0899067809E-01  2.8119688282E-01  6.6912163817E-01
  1.5862876254E+04  6.7037260574E+00  5.8956318199E+00  3.1471624690E-01  2.8602046453E-01  6.7147346253E-01
  1.5959866221E+04  6.7600639367E+00  5.8899100180E+00  3.2051185566E-01  2.9089056971E-01  6.7380630709E-01
  1.6056856187E+04  6.8167668884E+00  5.8843215592E+00  3.2637792455E-01  2.9580784530E-01  6.7612020612E-01
  1.6153846154E+04  6.8736832675E+00  5.8788045323E+00  3.3231487368E-01  3.0077184837E-01  6.7841519789E-01
  1.6250836120E+04  6.9307298885E+00  5.8733256578E+00  3.3832312309E-01  3.0578230104E-01  6.8069132577E-01
  1.6347826087E+04  6.9881964225E+00  5.8679962646E+00  3.4440309272E-01  3.1084004108E-01  6.8294863799E-01
  1.6444816054E+04  7.0458278994E+00  5.8627156467E+00  3.5055520243E-01  3.1594427120E-01  6.8518718751E-01
  1.6541806020E+04  7.1035945840E+00  5.8574719457E+00  3.5677987200E-01  3.2109484469E-01  6.8740703177E-01
  1.6638795987E+04  7.1618147585E+00  5.8523852655E+00  3.6307752114E-01  3.2629273379E-01  6.8960823256E-01
  1.6735785953E+04  7.2201695492E+00  5.8473325293E+00  3.6944856947E-01  3.3153687323E-01  6.9179085580E-01
  1.6832775920E+04  7.2786810791E+00  5.8423217838E+00  3.7589343653E-01  3.3682726542E-01  6.9395497085E-01
  1.6929765886E+04  7.3376307472E+00  5.8374570959E+00  3.8241254178E-01  3.4216480797E-01  6.9610063751E-01
  1.7026755853E+04  7.3967169975E+00  5.8326242142E+00  3.8900630459E-01  3.4754841668E-01  6.9822791428E-01
  1.7123745819E+04  7.4559651976E+00  5.8278322598E+00  3.9567514428E-01  3.5297809575E-01  7.0033686579E-01
  1.7220735786E+04  7.5156524196E+00  5.8231818707E+00  4.0241948006E-01  3.5845477159E-01  7.0242756086E-01
  1.7317725753E+04  7.5754782049E+00  5.8185612797E+00  4.0923973108E-01  3.6397728865E-01  7.0450007226E-01
  1.7414715719E+04  7.6354542148E+00  5.8139745134E+00  4.1613631639E-01  3.6954559021E-01  7.0655447656E-01
  1.7511705686E+04  7.6958869132E+00  5.8095311606E+00  4.2311613144E-01  3.7516585080E-01  7.0859085398E-01
  1.7608695652E+04  7.7564601702E+00  5.8051157176E+00  4.3022114355E-01  3.8086929516E-01  7.1060928817E-01
  1.7705685619E+04  7.8171735358E+00  5.8007278569E+00  4.3740525745E-01  3.8661911130E-01  7.1260986611E-01
  1.7802675585E+04  7.8783397652E+00  5.7964777984E+00  4.4466891023E-01  3.9241646219E-01  7.1459345949E-01
  1.7899665552E+04  7.9396676622E+00  5.7922606745E+00  4.5201253892E-01  3.9826007687E-01  7.1656121415E-01
  1.7996655518E+04  8.0011376776E+00  5.7880693829E+00  4.5943658054E-01  4.0414974855E-01  7.1851317942E-01
  1.8093645485E+04  8.0630140987E+00  5.7839956946E+00  4.6694147209E-01  4.1008648974E-01  7.2044940109E-01
  1.8190635452E+04  8.1251032902E+00  5.7799703877E+00  4.7452765054E-01  4.1606936738E-01  7.2236992840E-01
  1.8287625418E+04  8.1873366132E+00  5.7759692652E+00  4.8219555284E-01  4.2209794683E-01  7.2427481385E-01
  1.8384615385E+04  8.2499114691E+00  5.7720598741E+00  4.8994561591E-01  4.2817298503E-01  7.2616411312E-01
  1.8481605351E+04  8.3127684824E+00  5.7682202343E+00  4.9777827667E-01  4.3429409882E-01  7.2803788493E-01
  1.8578595318E+04  8.3757716439E+00  5.7644032261E+00  5.0569397198E-01  4.4046051966E-01  7.2989619090E-01
  1.8675585284E+04  8.4390326363E+00  5.7606464930E+00  5.1369313871E-01  4.4667262653E-01  7.3173909541E-01
  1.8772575251E+04  8.5026638768E+00  5.7569866994E+00  5.2178302062E-01  4.5293596166E-01  7.3356666552E-01
  1.8869565217E+04  8.5664432853E+00  5.7533480729E+00  5.2996093242E-01  4.5924690245E-01  7.3537897081E-01
  1.8966555184E+04  8.6303775809E+00  5.7497327631E+00  5.3822389365E-01  4.6560272273E-01  7.3717608331E-01
  1.9063545151E+04  8.6947893314E+00  5.7462473015E+00  5.4657234401E-01  4.7200491534E-01  7.3895807732E-01
  1.9160535117E+04  8.7593512731E+00  5.7427816248E+00  5.5500672322E-01  4.7845165606E-01  7.4072502936E-01
  1.9257525084E+04  8.8240629931E+00  5.7393355215E+00  5.6352747097E-01  4.8494275512E-01  7.4247701800E-01
  1.9354515050E+04  8.8891439306E+00  5.7359805225E+00  5.7213502694E-01  4.9147921668E-01  7.4421412384E-01
  1.9451505017E+04  8.9544945687E+00  5.7326826445E+00  5.8082983078E-01  4.9806034852E-01  7.4593642867E-01
  1.9548494983E+04  9.0199970179E+00  5.7294030517E+00  5.8961232215E-01  5.0468531729E-01  7.4764400459E-01
  1.9645484950E+04  9.0857259904E+00  5.7261657444E+00  5.9848294067E-01  5.1135434649E-01  7.4933691633E-01
  1.9742474916E+04  9.1518713650E+00  5.7230307763E+00  6.0744212596E-01  5.1806835181E-01  7.5101523101E-01
  1.9839464883E+04  9.2181705863E+00  5.7199128755E+00  6.1649031760E-01  5.2482563713E-01  7.5267901832E-01
  1.9936454849E+04  9.2846232575E+00  5.7168118665E+00  6.2562795519E-01  5.3162598273E-01  7.5432835037E-01
  2.0033444816E+04  9.3514792542E+00  5.7138064487E+00  6.3487420452E-01  5.3848416639E-01  7.5596330162E-01
  2.0130434783E+04  9.4185813905E+00  5.7108456093E+00  6.4424727494E-01  5.4541163967E-01  7.5758394868E-01
  2.0227424749E+04  9.4858390235E+00  5.7079005245E+00  6.5371248435E-01  5.5238225433E-01  7.5919037030E-01
  2.0324414716E+04  9.5533155754E+00  5.7049907461E+00  6.6327028754E-01  5.5939618108E-01  7.6078264717E-01
  2.0421404682E+04  9.6212279057E+00  5.7021822722E+00  6.7292113929E-01  5.6645460596E-01  7.6236086187E-01
  2.0518394649E+04  9.6892977963E+00  5.6993884782E+00  6.8266549444E-01  5.7355553193E-01  7.6392509871E-01
  2.0615384615E+04  9.7575248654E+00  5.6966092184E+00  6.9250380785E-01  5.8069870957E-01  7.6547544371E-01
  2.0712374582E+04  9.8261089124E+00  5.6939043884E+00  7.0243653441E-01  5.8788524167E-01  7.6701198441E-01
  2.0809364548E+04  9.8949987204E+00  5.6912573760E+00  7.1246412903E-01  5.9511457816E-01  7.6853480983E-01
  2.0906354515E+04  9.9640477970E+00  5.6886238942E+00  7.2258704666E-01  6.0238548191E-01  7.7004401037E-01
  2.1003344482E+04  1.0033255769E+01  5.6860038118E+00  7.3280574228E-01  6.0969768791E-01  7.7153968152E-01
  2.1100334448E+04  1.0102940100E+01  5.6834896027E+00  7.4312067089E-01  6.1705320418E-01  7.7302193892E-01
  2.1197324415E+04  1.0172818801E+01  5.6809976585E+00  7.5353228750E-01  6.2444980552E-01  7.7449086788E-01
  2.1294314381E+04  1.0242858513E+01  5.6785181755E+00  7.6404104718E-01  6.3188698300E-01  7.7594654905E-01
  2.1391304348E+04  1.0313119269E+01  5.6760682614E+00  7.7464740502E-01  6.3936490753E-01  7.7738906473E-01
  2.1488294314E+04  1.0383835144E+01  5.6737138120E+00  7.8535181611E-01  6.4688508629E-01  7.7881849883E-01
  2.1585284281E+04  1.0454714168E+01  5.6713709359E+00  7.9615473560E-01  6.5444508598E-01  7.8023493674E-01
  2.1682274247E+04  1.0525755981E+01  5.6690395245E+00  8.0705661864E-01  6.6204461673E-01  7.8163846524E-01
  2.1779264214E+04  1.0597093108E+01  5.6667563186E+00  8.1805792044E-01  6.6968443017E-01  7.8302917239E-01
  2.1876254181E+04  1.0668818945E+01  5.6645462396E+00  8.2915909619E-01  6.7736501647E-01  7.8440714750E-01
  2.1973244147E+04  1.0740709733E+01  5.6623467938E+00  8.4036060115E-01  6.8508434139E-01  7.8577248096E-01
  2.2070234114E+04  1.0812765121E+01  5.6601578834E+00  8.5166289057E-01  6.9284210181E-01  7.8712526421E-01
  2.2167224080E+04  1.0885168048E+01  5.6580288466E+00  8.6306641975E-01  7.0063950849E-01  7.8846558967E-01
  2.2264214047E+04  1.0957915260E+01  5.6559577720E+00  8.7457164401E-01  7.0847628397E-01  7.8979355059E-01
  2.2361204013E+04  1.1030829260E+01  5.6538964534E+00  8.8617947541E-01  7.1635096635E-01  7.9110924106E-01
  2.2458193980E+04  1.1103909705E+01  5.6518448025E+00  8.9797832996E-01  7.2432046676E-01  7.9241275535E-01
  2.2555183946E+04  1.1177366674E+01  5.6498579561E+00  9.0988221697E-01  7.3232954989E-01  7.9370418164E-01
  2.2652173913E+04  1.1251146679E+01  5.6479208343E+00  9.2189161127E-01  7.4037748810E-01  7.9498360465E-01
  2.2749163880E+04  1.1325095342E+01  5.6459926490E+00  9.3400698774E-01  7.4846262852E-01  7.9625111023E-01
  2.2846153846E+04  1.1399212328E+01  5.6440733210E+00  9.4622882135E-01  7.5658463900E-01  7.9750678525E-01
  2.2943143813E+04  1.1473710371E+01  5.6422172063E+00  9.5855758714E-01  7.6474513077E-01  7.9875071760E-01
  2.3040133779E+04  1.1548534588E+01  5.6404092766E+00  9.7099376023E-01  7.7294333057E-01  7.9998299604E-01
  2.3137123746E+04  1.1623529365E+01  5.6386095173E+00  9.8353781581E-01  7.8117749655E-01  8.0120371014E-01
  2.3234113712E+04  1.1698694375E+01  5.6368178575E+00  9.9619022913E-01  7.8944728558E-01  8.0241295025E-01
  2.3331103679E+04  1.1774219298E+01  5.6350814995E+00  1.0089514755E+00  7.9775417125E-01  8.0361080736E-01
  2.3428093645E+04  1.1850099140E+01  5.6333982708E+00  1.0218220304E+00  8.0609782233E-01  8.0479737307E-01
  2.3525083612E+04  1.1926151477E+01  5.6317224957E+00  1.0348023693E+00  8.1447616463E-01  8.0597273954E-01
  2.3622073579E+04  1.2002375989E+01  5.6300541108E+00  1.0478929676E+00  8.2288884504E-01  8.0713699937E-01
  2.3719063545E+04  1.2078912349E+01  5.6284269847E+00  1.0610943011E+00  8.3133691112E-01  8.0829024558E-01
  2.3816053512E+04  1.2155859221E+01  5.6268642158E+00  1.0744068455E+00  8.3982105481E-01  8.0943257119E-01
  2.3913043478E+04  1.2232980556E+01  5.6253082297E+00  1.0878310764E+00  8.4833857977E-01  8.1056406431E-01
  2.4010033445E+04  1.2310276039E+01  5.6237589695E+00  1.1013674697E+00  8.5688912392E-01  8.1168480982E-01
  2.4107023411E+04  1.2387807124E+01  5.6222309694E+00  1.1150165014E+00  8.6547296991E-01  8.1279489325E-01
  2.4204013378E+04  1.2465832419E+01  5.6207846520E+00  1.1287786474E+00  8.7409251436E-01  8.1389440072E-01
  2.4301003344E+04  1.2544034175E+01  5.6193444884E+00  1.1426543837E+00  8.8274409908E-01  8.1498341893E-01
  2.4397993311E+04  1.2622412084E+01  5.6179104282E+00  1.1566441864E+00  8.9142735403E-01  8.1606203506E-01
  2.4494983278E+04  1.2700965841E+01  5.6164824213E+00  1.1707485318E+00  9.0014190695E-01  8.1713033673E-01
  2.4591973244E+04  1.2780034987E+01  5.6151381810E+00  1.1849678961E+00  9.0889113974E-01  8.1818841191E-01
  2.4688963211E+04  1.2859328572E+01  5.6138100868E+00  1.1993027555E+00  9.1767154731E-01  8.1923634891E-01
  2.4785953177E+04  1.2938800346E+01  5.6124875119E+00  1.2137535865E+00  9.2648225010E-01  8.2027423627E-01
  2.4882943144E+04  1.3018450011E+01  5.6111704121E+00  1.2283208655E+00  9.3532286917E-01  8.2130216276E-01
  2.4979933110E+04  1.3098480530E+01  5.6099043731E+00  1.2430050691E+00  9.4419537246E-01  8.2232021729E-01
  2.5076923077E+04  1.3178874863E+01  5.6086847527E+00  1.2578769910E+00  9.5313962728E-01  8.2332848979E-01
  2.5173913043E+04  1.3259449433E+01  5.6074701039E+00  1.2728867340E+00  9.6212377612E-01  8.2432708615E-01
  2.5270903010E+04  1.3340203946E+01  5.6062603875E+00  1.2880166308E+00  9.7113695014E-01  8.2531609642E-01
  2.5367892977E+04  1.3421173116E+01  5.6050635917E+00  1.3032671741E+00  9.8017918943E-01  8.2629560298E-01
  2.5464882943E+04  1.3502660503E+01  5.6039487722E+00  1.3186388572E+00  9.8925390193E-01  8.2726568848E-01
  2.5561872910E+04  1.3584330046E+01  5.6028384112E+00  1.3341321729E+00  9.9835658934E-01  8.2822643582E-01
  2.5658862876E+04  1.3666181459E+01  5.6017324740E+00  1.3497476147E+00  1.0074868563E+00  8.2917792808E-01
  2.5755852843E+04  1.3748214457E+01  5.6006309265E+00  1.3654856758E+00  1.0166443060E+00  8.3012024845E-01
  2.5852842809E+04  1.3830635008E+01  5.5995827492E+00  1.3813468496E+00  1.0258313198E+00  8.3105348025E-01
  2.5949832776E+04  1.3913384012E+01  5.5985731166E+00  1.3973316297E+00  1.0350467785E+00  8.3197770680E-01
  2.6046822742E+04  1.3996316628E+01  5.5975674315E+00  1.4134405096E+00  1.0442883531E+00  8.3289301146E-01
  2.6143812709E+04  1.4079432579E+01  5.5965656640E+00  1.4296739832E+00  1.0535556432E+00  8.3379947752E-01
  2.6240802676E+04  1.4162732280E+01  5.5955679575E+00  1.4460325443E+00  1.0628482571E+00  8.3469718823E-01
  2.6337792642E+04  1.4246544049E+01  5.5946556709E+00  1.4625166869E+00  1.0721706428E+00  8.3558622500E-01
  2.6434782609E+04  1.4330540989E+01  5.5937468855E+00  1.4791269048E+00  1.0815176667E+00  8.3646666291E-01
  2.6531772575E+04  1.4414722826E+01  5.5928415753E+00  1.4958636924E+00  1.0908889256E+00  8.3733857989E-01
  2.6628762542E+04  1.4499089289E+01  5.5919397142E+00  1.5127275439E+00  1.1002840152E+00  8.3820205431E-01
  2.6725752508E+04  1.4583743851E+01  5.5910683968E+00  1.5297189535E+00  1.1097041996E+00  8.3905716453E-01
  2.6822742475E+04  1.4668787091E+01  5.5902533225E+00  1.5468384158E+00  1.1191507565E+00  8.3990398891E-01
  2.6919732441E+04  1.4754016606E+01  5.5894413083E+00  1.5640864253E+00  1.1286200585E+00  8.4074260549E-01
  2.7016722408E+04  1.4839432131E+01  5.5886323317E+00  1.5814634767E+00  1.1381116999E+00  8.4157309057E-01
  2.7113712375E+04  1.4925033402E+01  5.5878263707E+00  1.5989700646E+00  1.1476252744E+00  8.4239552021E-01
  2.7210702341E+04  1.5010988916E+01  5.5870700372E+00  1.6166066839E+00  1.1571633784E+00  8.4320993922E-01
  2.7307692308E+04  1.5097246785E+01  5.5863483090E+00  1.6343738296E+00  1.1667247584E+00  8.4401682158E-01
  2.7404682274E+04  1.5183691858E+01  5.5856292325E+00  1.6522721089E+00  1.1763070387E+00  8.4481746025E-01
  2.7501672241E+04  1.5270323878E+01  5.5849127885E+00  1.6703023846E+00  1.1859099968E+00  8.4561296193E-01
  2.7598662207E+04  1.5357142588E+01  5.5841989581E+00  1.6884646828E+00  1.1955329867E+00  8.4640331776E-01
  2.7695652174E+04  1.5444348095E+01  5.5835467735E+00  1.7067594988E+00  1.2051795724E+00  8.4718852370E-01
  2.7792642140E+04  1.5531802114E+01  5.5829147524E+00  1.7251873283E+00  1.2148466910E+00  8.4796862159E-01
  2.7889632107E+04  1.5619444092E+01  5.5822850041E+00  1.7437486667E+00  1.2245327514E+00  8.4874365285E-01
  2.7986622074E+04  1.5707273777E+01  5.5816575128E+00  1.7624440098E+00  1.2342373475E+00  8.4951365852E-01
  2.8083612040E+04  1.5795290920E+01  5.5810322625E+00  1.7812738534E+00  1.2439600732E+00  8.5027867920E-01
  2.8180602007E+04  1.5883698861E+01  5.5804739238E+00  1.8002386934E+00  1.2537050554E+00  8.5103875512E-01
  2.8277591973E+04  1.5972328945E+01  5.5799281798E+00  1.8193390257E+00  1.2634682224E+00  8.5179392611E-01
  2.8374581940E+04  1.6061147564E+01  5.5793843575E+00  1.8385753465E+00  1.2732484330E+00  8.5254423161E-01
  2.8471571906E+04  1.6150154473E+01  5.5788424438E+00  1.8579481519E+00  1.2830452828E+00  8.5328971068E-01
  2.8568561873E+04  1.6239349429E+01  5.5783024253E+00  1.8774579381E+00  1.2928583680E+00  8.5403040200E-01
  2.8665551839E+04  1.6328916112E+01  5.5778281257E+00  1.8971052016E+00  1.3026919373E+00  8.5476634387E-01
  2.8762541806E+04  1.6418700593E+01  5.5773654230E+00  1.9168904387E+00  1.3125417835E+00  8.5549757424E-01
  2.8859531773E+04  1.6508674008E+01  5.5769043161E+00  1.9368141461E+00  1.3224067869E+00  8.5622413067E-01
  2.8956521739E+04  1.6598836117E+01  5.5764447942E+00  1.9568768204E+00  1.3322865464E+00  8.5694605038E-01
  2.9053511706E+04  1.6689186683E+01  5.5759868466E+00  1.9770789582E+00  1.3421806614E+00  8.5766337022E-01
  2.9150501672E+04  1.6779872755E+01  5.5755872437E+00  1.9974210565E+00  1.3520930274E+00  8.5837612669E-01
  2.9247491639E+04  1.6870788416E+01  5.5752045259E+00  2.0179036121E+00  1.3620202426E+00  8.5908435595E-01
  2.9344481605E+04  1.6961893230E+01  5.5748231013E+00  2.0385271219E+00  1.3719607467E+00  8.5978809381E-01
  2.9441471572E+04  1.7053186963E+01  5.5744429613E+00  2.0592920832E+00  1.3819141430E+00  8.6048737574E-01
  2.9538461538E+04  1.7144669382E+01  5.5740640973E+00  2.0801989931E+00  1.3918800354E+00  8.6118223688E-01
  2.9635451505E+04  1.7236440326E+01  5.5737302826E+00  2.1012483489E+00  1.4018614607E+00  8.6187271201E-01
  2.9732441472E+04  1.7328462463E+01  5.5734246599E+00  2.1224406479E+00  1.4118568239E+00  8.6255883636E-01
  2.9829431438E+04  1.7420673794E+01  5.5731200491E+00  2.1437763875E+00  1.4218636317E+00  8.6324064628E-01
  2.9926421405E+04  1.7513074088E+01  5.5728164438E+00  2.1652560654E+00  1.4318814928E+00  8.6391817756E-01
  3.0023411371E+04  1.7605663120E+01  5.5725138372E+00  2.1869209668E+00  1.4419277489E+00  8.6459146559E-01
  3.0120401338E+04  1.7698493576E+01  5.5722372931E+00  2.2088607543E+00  1.4520422861E+00  8.6526054538E-01
  3.0217391304E+04  1.7791606769E+01  5.5720059840E+00  2.2309488282E+00  1.4621707921E+00  8.6592545156E-01
  3.0314381271E+04  1.7884909091E+01  5.5717754257E+00  2.2531857079E+00  1.4723092677E+00  8.6658621838E-01
  3.0411371237E+04  1.7978400321E+01  5.5715456134E+00  2.2755719128E+00  1.4824573196E+00  8.6724287972E-01
  3.0508361204E+04  1.8072080237E+01  5.5713165423E+00  2.2981079625E+00  1.4926145554E+00  8.6789546909E-01
  3.0605351171E+04  1.8165950764E+01  5.5710891348E+00  2.3207943767E+00  1.5027806665E+00  8.6854401966E-01
  3.0702341137E+04  1.8260165337E+01  5.5709293927E+00  2.3436316754E+00  1.5129611895E+00  8.6918856423E-01
  3.0799331104E+04  1.8354569067E+01  5.5707701590E+00  2.3666203784E+00  1.5231498620E+00  8.6982913526E-01
  3.0896321070E+04  1.8449161736E+01  5.5706114304E+00  2.3897610060E+00  1.5333462982E+00  8.7046576485E-01
  3.0993311037E+04  1.8543943128E+01  5.5704532039E+00  2.4130540783E+00  1.5435501137E+00  8.7109848478E-01
  3.1090301003E+04  1.8638913025E+01  5.5702954762E+00  2.4365001158E+00  1.5537609257E+00  8.7172732649E-01
  3.1187290970E+04  1.8734170507E+01  5.5701763691E+00  2.4600996388E+00  1.5639820504E+00  8.7235232108E-01
