#[MATERIAL DEFINITION FOR MC-GPU: interaction mean free path and sampling data from PENELOPE 2006]
#[MATERIAL NAME]
# MATERIAL20                                                    
#[NOMINAL DENSITY (g/cm^3)]
#   1.00000000
#[NUMBER OF DATA VALUES]
#   1495
#[MEAN FREE PATHS (cm) (ie, average distance between interactions)]
#[Energy (eV)     | Rayleigh        | Compton         | Photoelectric   | TOTAL (+pair prod) (cm) | Rayleigh: max cumul prob F^2]
  5.0000000000E+03  1.2475264617E+00  9.4628194184E+00  6.0100759639E-03  5.9774824303E-03  2.5899643531E-01
  5.0969899666E+03  1.2705236547E+00  9.3714400927E+00  6.3308623171E-03  6.2952411678E-03  2.6388885894E-01
  5.1939799331E+03  1.2936738520E+00  9.2838097178E+00  6.6621807330E-03  6.6233188890E-03  2.6873719252E-01
  5.2909698997E+03  1.3169747354E+00  9.1997117573E+00  7.0041680558E-03  6.9618419821E-03  2.7354274727E-01
  5.3879598662E+03  1.3404239101E+00  9.1189451379E+00  7.3569602582E-03  7.3109356511E-03  2.7830675292E-01
  5.4849498328E+03  1.3640189147E+00  9.0413228981E+00  7.7207770576E-03  7.6708074348E-03  2.8303036123E-01
  5.5819397993E+03  1.3877572302E+00  8.9666709755E+00  8.0966879989E-03  8.0425028816E-03  2.8771472502E-01
  5.6789297659E+03  1.4116362892E+00  8.8948271178E+00  8.4838851834E-03  8.4252139712E-03  2.9236098306E-01
  5.7759197324E+03  1.4356534847E+00  8.8256399032E+00  8.8825032701E-03  8.8190631350E-03  2.9697015878E-01
  5.8729096990E+03  1.4598061787E+00  8.7589678562E+00  9.2926761365E-03  9.2241716769E-03  3.0154322967E-01
  5.9698996656E+03  1.4840917142E+00  8.6946786424E+00  9.7145368958E-03  9.6406597855E-03  3.0608117560E-01
  6.0668896321E+03  1.5085076128E+00  8.6326479601E+00  1.0149126299E-02  1.0069540748E-02  3.1058491519E-01
  6.1638795987E+03  1.5330519152E+00  8.5727582708E+00  1.0596150706E-02  1.0510512861E-02  3.1505527030E-01
  6.2608695652E+03  1.5577231421E+00  8.5148984082E+00  1.1057081697E-02  1.0965010804E-02  3.1949305889E-01
  6.3578595318E+03  1.5825198085E+00  8.4589640703E+00  1.1535582330E-02  1.1436620257E-02  3.2389911677E-01
  6.4548494983E+03  1.6074486375E+00  8.4049025629E+00  1.2027017093E-02  1.1920767220E-02  3.2827413603E-01
  6.5518394649E+03  1.6325102593E+00  8.3526307577E+00  1.2533854365E-02  1.2419861831E-02  3.3261872249E-01
  6.6488294314E+03  1.6576947063E+00  8.3020150958E+00  1.3054953454E-02  1.2932766350E-02  3.3693349002E-01
  6.7458193980E+03  1.6830002826E+00  8.2529737282E+00  1.3589647698E-02  1.3458810667E-02  3.4121905940E-01
  6.8428093645E+03  1.7084252561E+00  8.2054296387E+00  1.4138086818E-02  1.3998126217E-02  3.4547605729E-01
  6.9397993311E+03  1.7339678635E+00  8.1593103083E+00  1.4700419978E-02  1.4550843385E-02  3.4970508128E-01
  7.0367892977E+03  1.7596272676E+00  8.1145519722E+00  1.5277824556E-02  1.5118098973E-02  3.5390656974E-01
  7.1337792642E+03  1.7854307190E+00  8.0712235872E+00  1.5871216454E-02  1.5700773751E-02  3.5808092760E-01
  7.2307692308E+03  1.8113495788E+00  8.0291282411E+00  1.6479113705E-02  1.6297395858E-02  3.6222856903E-01
  7.3277591973E+03  1.8373825401E+00  7.9882075770E+00  1.7101667126E-02  1.6908094989E-02  3.6634991602E-01
  7.4247491639E+03  1.8635282093E+00  7.9484065785E+00  1.7739027022E-02  1.7532999789E-02  3.7044539718E-01
  7.5217391304E+03  1.8898027499E+00  7.9097454673E+00  1.8391343192E-02  1.8172239862E-02  3.7451538781E-01
  7.6187290970E+03  1.9162115129E+00  7.8721954824E+00  1.9058764933E-02  1.8825942838E-02  3.7856016235E-01
  7.7157190635E+03  1.9427311599E+00  7.8356181726E+00  1.9741441056E-02  1.9494231897E-02  3.8257999507E-01
  7.8127090301E+03  1.9693600006E+00  7.7999695495E+00  2.0439519886E-02  2.0177231532E-02  3.8657516881E-01
  7.9096989967E+03  1.9961250089E+00  7.7653124387E+00  2.1153149273E-02  2.0875069077E-02  3.9054597418E-01
  8.0066889632E+03  2.0230181701E+00  7.7315756978E+00  2.1883365145E-02  2.1588731306E-02  3.9449268812E-01
  8.1036789298E+03  2.0500181309E+00  7.6986484435E+00  2.2641816070E-02  2.2329522019E-02  3.9841550537E-01
  8.2006688963E+03  2.0771322795E+00  7.6665262756E+00  2.3417009031E-02  2.3086225687E-02  4.0231460782E-01
  8.2976588629E+03  2.1043987525E+00  7.6353001882E+00  2.4209107467E-02  2.3858983297E-02  4.0619018605E-01
  8.3946488294E+03  2.1317698667E+00  7.6047812732E+00  2.5018274432E-02  2.4647921525E-02  4.1004243846E-01
  8.4916387960E+03  2.1592455506E+00  7.5749457455E+00  2.5844672603E-02  2.5453173040E-02  4.1387155347E-01
  8.5886287625E+03  2.1868858198E+00  7.5459452142E+00  2.6688464285E-02  2.6274880258E-02  4.1767765975E-01
  8.6856187291E+03  2.2146280010E+00  7.5175635487E+00  2.7549811412E-02  2.7113163313E-02  4.2146087951E-01
  8.7826086957E+03  2.2424777128E+00  7.4897972974E+00  2.8428875556E-02  2.7968152825E-02  4.2522134320E-01
  8.8795986622E+03  2.2704908826E+00  7.4627744900E+00  2.9325817931E-02  2.8839988632E-02  4.2895919026E-01
  8.9765886288E+03  2.2986025688E+00  7.4362941340E+00  3.0240799396E-02  2.9728785979E-02  4.3267457419E-01
  9.0735785953E+03  2.3268385315E+00  7.4104058396E+00  3.1178854588E-02  3.0639383702E-02  4.3636756545E-01
  9.1705685619E+03  2.3552226859E+00  7.3851446454E+00  3.2137104565E-02  3.1568969615E-02  4.4003821738E-01
  9.2675585284E+03  2.3837016273E+00  7.3603596790E+00  3.3114203433E-02  3.2516200678E-02  4.4368659208E-01
  9.3645484950E+03  2.4123377796E+00  7.3361802303E+00  3.4110317371E-02  3.3481220494E-02  4.4731275985E-01
  9.4615384615E+03  2.4410914357E+00  7.3124917509E+00  3.5125612245E-02  3.4464148251E-02  4.5091679860E-01
  9.5585284281E+03  2.4699559876E+00  7.2892656605E+00  3.6160253611E-02  3.5465109322E-02  4.5449879338E-01
  9.6555183946E+03  2.4989871835E+00  7.2666013123E+00  3.7214406722E-02  3.6484244242E-02  4.5805883585E-01
  9.7525083612E+03  2.5281073013E+00  7.2443200395E+00  3.8288236525E-02  3.7521657905E-02  4.6159701805E-01
  9.8494983278E+03  2.5573964575E+00  7.2225686925E+00  3.9381907671E-02  3.8577496021E-02  4.6511337416E-01
  9.9464882943E+03  2.5867949866E+00  7.2012118287E+00  4.0495584514E-02  3.9651865260E-02  4.6860791726E-01
  1.0043478261E+04  2.6163265635E+00  7.1802830177E+00  4.1634551474E-02  4.0749799273E-02  4.7208066987E-01
  1.0140468227E+04  2.6460055763E+00  7.1597922174E+00  4.2800536172E-02  4.1872907661E-02  4.7553166210E-01
  1.0237458194E+04  2.6757847705E+00  7.1396437247E+00  4.3987554026E-02  4.3015399463E-02  4.7896093131E-01
  1.0334448161E+04  2.7057463078E+00  7.1199672802E+00  4.5195778432E-02  4.4177427829E-02  4.8236852167E-01
  1.0431438127E+04  2.7357861277E+00  7.1005738671E+00  4.6425382540E-02  4.5359084541E-02  4.8575448374E-01
  1.0528428094E+04  2.7660243867E+00  7.0816519158E+00  4.7676539252E-02  4.6560534951E-02  4.8911887104E-01
  1.0625418060E+04  2.7963458280E+00  7.0630017261E+00  4.8949421234E-02  4.7781862809E-02  4.9246170323E-01
  1.0722408027E+04  2.8268467116E+00  7.0447667015E+00  5.0244200908E-02  4.9023225022E-02  4.9578298421E-01
  1.0819397993E+04  2.8574509297E+00  7.0268171280E+00  5.1561050460E-02  5.0284715008E-02  4.9908272559E-01
  1.0916387960E+04  2.8882198513E+00  7.0092373184E+00  5.2900141842E-02  5.1566476360E-02  5.0236094590E-01
  1.1013377926E+04  2.9191076498E+00  6.9919484548E+00  5.4261646773E-02  5.2868610354E-02  5.0561767033E-01
  1.1110367893E+04  2.9501500355E+00  6.9749941437E+00  5.5645736743E-02  5.4191249439E-02  5.0885293032E-01
  1.1207357860E+04  2.9813218572E+00  6.9583285740E+00  5.7056094707E-02  5.5537827390E-02  5.1206676331E-01
  1.1304347826E+04  3.0126431449E+00  6.9419718821E+00  5.8498794239E-02  5.6914045911E-02  5.1525919956E-01
  1.1401337793E+04  3.0440990619E+00  6.9258944899E+00  5.9965127780E-02  5.8311590926E-02  5.1843024496E-01
  1.1498327759E+04  3.0757047012E+00  6.9101092314E+00  6.1455275329E-02  5.9730589904E-02  5.2157990867E-01
  1.1595317726E+04  3.1074444056E+00  6.8945870272E+00  6.2969416694E-02  6.1171154809E-02  5.2470820645E-01
  1.1692307692E+04  3.1393398562E+00  6.8793485798E+00  6.4507731500E-02  6.2633414353E-02  5.2781516032E-01
  1.1789297659E+04  3.1713626501E+00  6.8643505439E+00  6.6070399185E-02  6.4117471340E-02  5.3090079828E-01
  1.1886287625E+04  3.2035533813E+00  6.8496357305E+00  6.7657599006E-02  6.5623462317E-02  5.3396515404E-01
  1.1983277592E+04  3.2358581665E+00  6.8351326697E+00  6.9269510038E-02  6.7151473550E-02  5.3700825726E-01
  1.2080267559E+04  3.2683496561E+00  6.8209196510E+00  7.0906311176E-02  6.8701657504E-02  5.4003012069E-01
  1.2177257525E+04  3.3009349243E+00  6.8068840682E+00  7.2568181136E-02  7.0274074954E-02  5.4303076080E-01
  1.2274247492E+04  3.3337326572E+00  6.7931522448E+00  7.4255298459E-02  7.1868904028E-02  5.4601020017E-01
  1.2371237458E+04  3.3665964794E+00  6.7795582202E+00  7.5967841509E-02  7.3486169307E-02  5.4896846717E-01
  1.2468227425E+04  3.3997059579E+00  6.7662881620E+00  7.7705988480E-02  7.5126086168E-02  5.5190559574E-01
  1.2565217391E+04  3.4328807128E+00  6.7531466056E+00  7.9482586542E-02  7.6800480917E-02  5.5482162808E-01
  1.2662207358E+04  3.4662730953E+00  6.7402852257E+00  8.1291911894E-02  7.8504010232E-02  5.5771662349E-01
  1.2759197324E+04  3.4997669984E+00  6.7275812922E+00  8.3128096877E-02  8.0231051600E-02  5.6059060553E-01
  1.2856187291E+04  3.5334378855E+00  6.7151047070E+00  8.4991330490E-02  8.1981765308E-02  5.6344359548E-01
  1.2953177258E+04  3.5672575996E+00  6.7028231294E+00  8.6881801600E-02  8.3756243094E-02  5.6627562048E-01
  1.3050167224E+04  3.6012042461E+00  6.6907107859E+00  8.8799698947E-02  8.5554577710E-02  5.6908671328E-01
  1.3147157191E+04  3.6353565098E+00  6.6788371647E+00  9.0745211142E-02  8.7376933115E-02  5.7187691198E-01
  1.3244147157E+04  3.6695780627E+00  6.6670716570E+00  9.2718526670E-02  8.9223315458E-02  5.7464625983E-01
  1.3341137124E+04  3.7040671798E+00  6.6555901074E+00  9.4719833890E-02  9.1093977817E-02  5.7739480501E-01
  1.3438127090E+04  3.7386295901E+00  6.6442134894E+00  9.6749321035E-02  9.2988876401E-02  5.8012260040E-01
  1.3535117057E+04  3.7733924904E+00  6.6330502078E+00  9.8807176216E-02  9.4908211466E-02  5.8282970342E-01
  1.3632107023E+04  3.8083025915E+00  6.6220498038E+00  1.0089358742E-01  9.6852042244E-02  5.8551617577E-01
  1.3729096990E+04  3.8433347319E+00  6.6111871586E+00  1.0300929911E-01  9.8820958362E-02  5.8818208333E-01
  1.3826086957E+04  3.8785993815E+00  6.6005509235E+00  1.0515491727E-01  1.0081553409E-01  5.9082749327E-01
  1.3923076923E+04  3.9139376925E+00  6.5900059742E+00  1.0732970140E-01  1.0283487410E-01  5.9345244625E-01
  1.4020066890E+04  3.9495216613E+00  6.5796884827E+00  1.0953383957E-01  1.0487922482E-01  5.9605697765E-01
  1.4117056856E+04  3.9852230594E+00  6.5694917402E+00  1.1176751971E-01  1.0694856683E-01  5.9864112824E-01
  1.4214046823E+04  4.0210704979E+00  6.5594353456E+00  1.1403092964E-01  1.0904301729E-01  6.0120494394E-01
  1.4311036789E+04  4.0571419205E+00  6.5495761396E+00  1.1632425706E-01  1.1116274235E-01  6.0374847560E-01
  1.4408026756E+04  4.0932900054E+00  6.5397981963E+00  1.1864768956E-01  1.1330768995E-01  6.0627177883E-01
  1.4505016722E+04  4.1296947036E+00  6.5302336968E+00  1.2100141461E-01  1.1547812533E-01  6.0877491376E-01
  1.4602006689E+04  4.1662215079E+00  6.5207791413E+00  1.2338561956E-01  1.1767400278E-01  6.1125794489E-01
  1.4698996656E+04  4.2028811571E+00  6.5114399901E+00  1.2580049167E-01  1.1989541655E-01  6.1372094088E-01
  1.4795986622E+04  4.2397936869E+00  6.5022993309E+00  1.2824621805E-01  1.2214257852E-01  6.1616397436E-01
  1.4892976589E+04  4.2767860524E+00  6.4932311009E+00  1.3072298573E-01  1.2441538691E-01  6.1858711846E-01
  1.4989966555E+04  4.3140053636E+00  6.4843357766E+00  1.3323098161E-01  1.2671408278E-01  6.2099043032E-01
  1.5086956522E+04  4.3513919199E+00  6.4755688616E+00  1.3579728316E-01  1.2906297199E-01  6.2337396528E-01
  1.5183946488E+04  4.3888597868E+00  6.4668698658E+00  1.3839919665E-01  1.3144129037E-01  6.2573778342E-01
  1.5280936455E+04  4.4266384982E+00  6.4583924227E+00  1.4103386811E-01  1.3384662991E-01  6.2808194935E-01
  1.5377926421E+04  4.4645054530E+00  6.4499830637E+00  1.4370149721E-01  1.3627881127E-01  6.3040653197E-01
  1.5474916388E+04  4.5025202850E+00  6.4416810013E+00  1.4640228357E-01  1.3873798503E-01  6.3271160431E-01
  1.5571906355E+04  4.5407873035E+00  6.4335534838E+00  1.4913642671E-01  1.4122436388E-01  6.3499724334E-01
  1.5668896321E+04  4.5791389172E+00  6.4254865912E+00  1.5190412612E-01  1.4373781295E-01  6.3726352979E-01
  1.5765886288E+04  4.6176988849E+00  6.4175614641E+00  1.5470558120E-01  1.4627856901E-01  6.3951054796E-01
  1.5862876254E+04  4.6564531919E+00  6.4097660066E+00  1.5754099129E-01  1.4884669150E-01  6.4173838549E-01
  1.5959866221E+04  4.6952935396E+00  6.4020274505E+00  1.6041055566E-01  1.5144210451E-01  6.4394712505E-01
  1.6056856187E+04  4.7343913772E+00  6.3944570204E+00  1.6331447352E-01  1.5406511960E-01  6.4613683853E-01
  1.6153846154E+04  4.7736369010E+00  6.3869801312E+00  1.6625294401E-01  1.5671565413E-01  6.4830760061E-01
  1.6250836120E+04  4.8129698962E+00  6.3795566644E+00  1.6922616622E-01  1.5939368521E-01  6.5045948994E-01
  1.6347826087E+04  4.8525980484E+00  6.3723198258E+00  1.7223433916E-01  1.6209959124E-01  6.5259258895E-01
  1.6444816054E+04  4.8923385575E+00  6.3651488462E+00  1.7527766177E-01  1.6483316384E-01  6.5470698365E-01
  1.6541806020E+04  4.9321700994E+00  6.3580294116E+00  1.7835633295E-01  1.6759442809E-01  6.5680276351E-01
  1.6638795987E+04  4.9723185925E+00  6.3511047274E+00  1.8147055151E-01  1.7038380798E-01  6.5888002122E-01
  1.6735785953E+04  5.0125576980E+00  6.3442277673E+00  1.8462051622E-01  1.7320100195E-01  6.6093885258E-01
  1.6832775920E+04  5.0529029698E+00  6.3374079998E+00  1.8780642578E-01  1.7604608837E-01  6.6297935564E-01
  1.6929765886E+04  5.0935521314E+00  6.3307690576E+00  1.9102847881E-01  1.7891946208E-01  6.6500161553E-01
  1.7026755853E+04  5.1342932887E+00  6.3241749367E+00  1.9428687390E-01  1.8182081761E-01  6.6700571853E-01
  1.7123745819E+04  5.1751440902E+00  6.3176363507E+00  1.9758180955E-01  1.8475023372E-01  6.6899175728E-01
  1.7220735786E+04  5.2162972357E+00  6.3112724464E+00  2.0091348422E-01  1.8770811265E-01  6.7095982752E-01
  1.7317725753E+04  5.2575437461E+00  6.3049506408E+00  2.0428209629E-01  1.9069412653E-01  6.7291002799E-01
  1.7414715719E+04  5.2988916521E+00  6.2986755990E+00  2.0768784410E-01  1.9370833248E-01  6.7484246017E-01
  1.7511705686E+04  5.3405519426E+00  6.2925766436E+00  2.1113413637E-01  1.9675397244E-01  6.7675722823E-01
  1.7608695652E+04  5.3823069534E+00  6.2865172315E+00  2.1464176244E-01  1.9984851012E-01  6.7865443879E-01
  1.7705685619E+04  5.4241563763E+00  6.2804968904E+00  2.1818785864E-01  2.0297191550E-01  6.8053420082E-01
  1.7802675585E+04  5.4663137543E+00  6.2746453006E+00  2.2177263186E-01  2.0612467060E-01  6.8239778215E-01
  1.7899665552E+04  5.5085802399E+00  6.2688388621E+00  2.2539628896E-01  2.0930641494E-01  6.8424686052E-01
  1.7996655518E+04  5.5509424838E+00  6.2630691309E+00  2.2905903673E-01  2.1251715597E-01  6.8608149287E-01
  1.8093645485E+04  5.5935796327E+00  6.2574437650E+00  2.3276108198E-01  2.1575732130E-01  6.8790172827E-01
  1.8190635452E+04  5.6363604048E+00  6.2518813722E+00  2.3650263143E-01  2.1902666833E-01  6.8970761840E-01
  1.8287625418E+04  5.6792382670E+00  6.2463534638E+00  2.4028389181E-01  2.2232512565E-01  6.9149921740E-01
  1.8384615385E+04  5.7223460477E+00  6.2409390416E+00  2.4410506979E-01  2.2565303076E-01  6.9327658180E-01
  1.8481605351E+04  5.7656437686E+00  6.2356122582E+00  2.4796637201E-01  2.2901033037E-01  6.9503977040E-01
  1.8578595318E+04  5.8090398974E+00  6.2303178673E+00  2.5186800508E-01  2.3239683842E-01  6.9678884416E-01
  1.8675585284E+04  5.8526090224E+00  6.2250997450E+00  2.5581017559E-01  2.3581276123E-01  6.9852386803E-01
  1.8772575251E+04  5.8964262069E+00  6.2200005929E+00  2.5979689772E-01  2.3926154648E-01  7.0024491395E-01
  1.8869565217E+04  5.9403431029E+00  6.2149318628E+00  2.6382662844E-01  2.4274135285E-01  7.0195205610E-01
  1.8966555184E+04  5.9843641548E+00  6.2098959892E+00  2.6789766196E-01  2.4625058272E-01  7.0364537009E-01
  1.9063545151E+04  6.0287031719E+00  6.2050169168E+00  2.7201020628E-01  2.4978982007E-01  7.0532493292E-01
  1.9160535117E+04  6.0731431896E+00  6.2001664092E+00  2.7616446934E-01  2.5335852079E-01  7.0699082285E-01
  1.9257525084E+04  6.1176839249E+00  6.1953441558E+00  2.8036065910E-01  2.5695669575E-01  7.0864311936E-01
  1.9354515050E+04  6.1624697141E+00  6.1906331393E+00  2.8459898344E-01  2.6058475992E-01  7.1028190308E-01
  1.9451505017E+04  6.2074350635E+00  6.1859938056E+00  2.8887965025E-01  2.6424255398E-01  7.1190725342E-01
  1.9548494983E+04  6.2525024098E+00  6.1813809983E+00  2.9320286737E-01  2.6792986976E-01  7.1351922971E-01
  1.9645484950E+04  6.2977205042E+00  6.1768224470E+00  2.9756884262E-01  2.7164685605E-01  7.1511789100E-01
  1.9742474916E+04  6.3432132521E+00  6.1723876029E+00  3.0197778378E-01  2.7539389542E-01  7.1670329999E-01
  1.9839464883E+04  6.3888092616E+00  6.1679776536E+00  3.0642989862E-01  2.7917048845E-01  7.1827552129E-01
  1.9936454849E+04  6.4345082605E+00  6.1635923386E+00  3.1092539486E-01  2.8297663308E-01  7.1983462134E-01
  2.0033444816E+04  6.4804723244E+00  6.1593224910E+00  3.1547466578E-01  2.8682126010E-01  7.2138066837E-01
  2.0130434783E+04  6.5265994533E+00  6.1551091048E+00  3.2008757472E-01  2.9071197204E-01  7.2291373225E-01
  2.0227424749E+04  6.5728308310E+00  6.1509188319E+00  3.2474522096E-01  2.9463274630E-01  7.2443388444E-01
  2.0324414716E+04  6.6192077446E+00  6.1467741657E+00  3.2944782001E-01  2.9858371351E-01  7.2594119790E-01
  2.0421404682E+04  6.6658713844E+00  6.1427511385E+00  3.3419558737E-01  3.0256534822E-01  7.2743574698E-01
  2.0518394649E+04  6.7126405510E+00  6.1387497876E+00  3.3898873851E-01  3.0657704692E-01  7.2891760738E-01
  2.0615384615E+04  6.7595149826E+00  6.1347698944E+00  3.4382748894E-01  3.1061879646E-01  7.3038685607E-01
  2.0712374582E+04  6.8066257207E+00  6.1308803912E+00  3.4871205412E-01  3.1469104447E-01  7.3184357117E-01
  2.0809364548E+04  6.8539391389E+00  6.1270620662E+00  3.5364264952E-01  3.1879367530E-01  7.3328783192E-01
  2.0906354515E+04  6.9013591323E+00  6.1232638581E+00  3.5861949061E-01  3.2292633745E-01  7.3471971859E-01
  2.1003344482E+04  6.9488854450E+00  6.1194855685E+00  3.6364279285E-01  3.2708901016E-01  7.3613931204E-01
  2.1100334448E+04  6.9967277930E+00  6.1158335181E+00  3.6871277169E-01  3.3128245387E-01  7.3754668763E-01
  2.1197324415E+04  7.0446998511E+00  6.1122114564E+00  3.7382964256E-01  3.3550597401E-01  7.3894191753E-01
  2.1294314381E+04  7.0927795709E+00  6.1086080604E+00  3.7899362092E-01  3.3975946419E-01  7.4032507522E-01
  2.1391304348E+04  7.1410068866E+00  6.1050429422E+00  3.8420492219E-01  3.4404305221E-01  7.4169623544E-01
  2.1488294314E+04  7.1895375194E+00  6.1015917504E+00  3.8946376179E-01  3.4835732924E-01  7.4305547409E-01
  2.1585284281E+04  7.2381771845E+00  6.0981580388E+00  3.9477035515E-01  3.5270152045E-01  7.4440286820E-01
  2.1682274247E+04  7.2869256354E+00  6.0947416409E+00  4.0012491767E-01  3.5707559208E-01  7.4573849578E-01
  2.1779264214E+04  7.3358716610E+00  6.0913846773E+00  4.0552766477E-01  3.6147987340E-01  7.4706243583E-01
  2.1876254181E+04  7.3850778135E+00  6.0881156829E+00  4.1097881183E-01  3.6591460314E-01  7.4837476822E-01
  2.1973244147E+04  7.4343941543E+00  6.0848628926E+00  4.1647857425E-01  3.7037913685E-01  7.4967557366E-01
  2.2070234114E+04  7.4838204419E+00  6.0816261549E+00  4.2202716742E-01  3.7487343336E-01  7.5096493360E-01
  2.2167224080E+04  7.5334800974E+00  6.0784619805E+00  4.2762480671E-01  3.7939798383E-01  7.5224293019E-01
  2.2264214047E+04  7.5833708984E+00  6.0753681162E+00  4.3327170750E-01  3.8395275636E-01  7.5350964622E-01
  2.2361204013E+04  7.6333730805E+00  6.0722892650E+00  4.3896832294E-01  3.8853738126E-01  7.5476516507E-01
  2.2458193980E+04  7.6834864078E+00  6.0692252894E+00  4.4476065723E-01  3.9318759454E-01  7.5600957021E-01
  2.2555183946E+04  7.7338535879E+00  6.0662392719E+00  4.5060391050E-01  3.9786863848E-01  7.5724294055E-01
  2.2652173913E+04  7.7844382593E+00  6.0633138898E+00  4.5649830781E-01  4.0258032129E-01  7.5846535259E-01
  2.2749163880E+04  7.8351355419E+00  6.0604024084E+00  4.6244407426E-01  4.0732212038E-01  7.5967688364E-01
  2.2846153846E+04  7.8859452045E+00  6.0575047027E+00  4.6844143496E-01  4.1209398073E-01  7.6087761176E-01
  2.2943143813E+04  7.9370127438E+00  6.0546828901E+00  4.7449061504E-01  4.1689654242E-01  7.6206761568E-01
  2.3040133779E+04  7.9883005972E+00  6.0519197304E+00  4.8059183963E-01  4.2172959299E-01  7.6324697476E-01
  2.3137123746E+04  8.0397023280E+00  6.0491694312E+00  4.8674533390E-01  4.2659257062E-01  7.6441576891E-01
  2.3234113712E+04  8.0912177103E+00  6.0464318791E+00  4.9295132302E-01  4.3148541288E-01  7.6557407855E-01
  2.3331103679E+04  8.1429773484E+00  6.0437609510E+00  4.9921003220E-01  4.3640871262E-01  7.6672198459E-01
  2.3428093645E+04  8.1949777799E+00  6.0411541127E+00  5.0552168662E-01  4.4136241225E-01  7.6785956829E-01
  2.3525083612E+04  8.2470933917E+00  6.0385591617E+00  5.1188651153E-01  4.4634582217E-01  7.6898691130E-01
  2.3622073579E+04  8.2993239626E+00  6.0359759951E+00  5.1830473217E-01  4.5135887271E-01  7.7010409556E-01
  2.3719063545E+04  8.3517663075E+00  6.0334432186E+00  5.2477657379E-01  4.5640200346E-01  7.7121120328E-01
  2.3816053512E+04  8.4044887942E+00  6.0309871340E+00  5.3130226167E-01  4.6147552588E-01  7.7230831661E-01
  2.3913043478E+04  8.4573278003E+00  6.0285420251E+00  5.3788202110E-01  4.6657851487E-01  7.7339551406E-01
  2.4010033445E+04  8.5102831092E+00  6.0261077988E+00  5.4451607738E-01  4.7171089363E-01  7.7447287192E-01
  2.4107023411E+04  8.5633976014E+00  6.0237009878E+00  5.5120465585E-01  4.7687282123E-01  7.7554046690E-01
  2.4204013378E+04  8.6168516967E+00  6.0213903981E+00  5.5794798184E-01  4.8206523474E-01  7.7659837608E-01
  2.4301003344E+04  8.6704236867E+00  6.0190899298E+00  5.6474628070E-01  4.8728684473E-01  7.7764667693E-01
  2.4397993311E+04  8.7241133592E+00  6.0167994984E+00  5.7159977781E-01  4.9253756747E-01  7.7868544715E-01
  2.4494983278E+04  8.7779205033E+00  6.0145190207E+00  5.7850869855E-01  4.9781731725E-01  7.7971476474E-01
  2.4591973244E+04  8.8320835643E+00  6.0123369103E+00  5.8547326833E-01  5.0312740071E-01  7.8073470789E-01
  2.4688963211E+04  8.8863981996E+00  6.0101761639E+00  5.9249371255E-01  5.0846657119E-01  7.8174535494E-01
  2.4785953177E+04  8.9408319329E+00  6.0080246612E+00  5.9957025666E-01  5.1383455186E-01  7.8274678437E-01
  2.4882943144E+04  8.9953845580E+00  6.0058823269E+00  6.0670312610E-01  5.1923125030E-01  7.8373907475E-01
  2.4979933110E+04  9.0501990918E+00  6.0038009626E+00  6.1389254634E-01  5.2465744972E-01  7.8472230469E-01
  2.5076923077E+04  9.1052635100E+00  6.0017752482E+00  6.2117540928E-01  5.3013971809E-01  7.8569655277E-01
  2.5173913043E+04  9.1604484562E+00  5.9997580330E+00  6.2852566094E-01  5.3565786384E-01  7.8666189547E-01
  2.5270903010E+04  9.2157537286E+00  5.9977492490E+00  6.3593406403E-01  5.4120486990E-01  7.8761840636E-01
  2.5367892977E+04  9.2712033446E+00  5.9957579528E+00  6.4340085215E-01  5.4678079505E-01  7.8856615902E-01
  2.5464882943E+04  9.3270073147E+00  5.9938626020E+00  6.5092625896E-01  5.5238694734E-01  7.8950522720E-01
  2.5561872910E+04  9.3829331157E+00  5.9919750523E+00  6.5851051812E-01  5.5802170411E-01  7.9043568475E-01
  2.5658862876E+04  9.4389805501E+00  5.9900952420E+00  6.6615386335E-01  5.6368495931E-01  7.9135760560E-01
  2.5755852843E+04  9.4951494209E+00  5.9882231104E+00  6.7385652841E-01  5.6937660503E-01  7.9227106376E-01
  2.5852842809E+04  9.5515778467E+00  5.9864143107E+00  6.8161874706E-01  5.7509754717E-01  7.9317613320E-01
  2.5949832776E+04  9.6082261699E+00  5.9846519525E+00  6.8944075312E-01  5.8084741558E-01  7.9407288792E-01
  2.6046822742E+04  9.6649972478E+00  5.9828966849E+00  6.9732278044E-01  5.8662539392E-01  7.9496140184E-01
  2.6143812709E+04  9.7218908876E+00  5.9811484532E+00  7.0526506289E-01  5.9243136791E-01  7.9584174879E-01
  2.6240802676E+04  9.7789073468E+00  5.9794073999E+00  7.1326783438E-01  5.9826522517E-01  7.9671400253E-01
  2.6337792642E+04  9.8362587282E+00  5.9777659858E+00  7.2133132887E-01  6.0412859382E-01  7.9757823573E-01
  2.6434782609E+04  9.8937337985E+00  5.9761310532E+00  7.2945578031E-01  6.1001965796E-01  7.9843451737E-01
  2.6531772575E+04  9.9513323692E+00  5.9745025530E+00  7.3764142273E-01  6.1593829716E-01  7.9928291757E-01
  2.6628762542E+04  1.0009054253E+01  5.9728804364E+00  7.4588849016E-01  6.2188438927E-01  8.0012350660E-01
  2.6725752508E+04  1.0066963320E+01  5.9712954877E+00  7.5419721668E-01  6.2785840050E-01  8.0095635467E-01
  2.6822742475E+04  1.0125121645E+01  5.9697768914E+00  7.6256783638E-01  6.3386080473E-01  8.0178153185E-01
  2.6919732441E+04  1.0183404221E+01  5.9682641606E+00  7.7100058342E-01  6.3989033848E-01  8.0259910795E-01
  2.7016722408E+04  1.0241810864E+01  5.9667572515E+00  7.7949569194E-01  6.4594687369E-01  8.0340915145E-01
  2.7113712375E+04  1.0300341391E+01  5.9652561209E+00  7.8805339616E-01  6.5203028071E-01  8.0421173058E-01
  2.7210702341E+04  1.0359094117E+01  5.9638137463E+00  7.9667393030E-01  6.5814147152E-01  8.0500682741E-01
  2.7307692308E+04  1.0418038713E+01  5.9624130156E+00  8.0535752862E-01  6.6428002470E-01  8.0579495092E-01
  2.7404682274E+04  1.0477107942E+01  5.9610175785E+00  8.1410450716E-01  6.7044515943E-01  8.0657867420E-01
  2.7501672241E+04  1.0536301625E+01  5.9596273962E+00  8.2291536792E-01  6.7663692091E-01  8.0735904062E-01
  2.7598662207E+04  1.0595619584E+01  5.9582424305E+00  8.3179000348E-01  6.8285493975E-01  8.0813606343E-01
  2.7695652174E+04  1.0655170440E+01  5.9569297859E+00  8.4072864829E-01  6.8910043112E-01  8.0890975950E-01
  2.7792642140E+04  1.0714879052E+01  5.9556422636E+00  8.4973153681E-01  6.9537235650E-01  8.0968014598E-01
  2.7889632107E+04  1.0774712499E+01  5.9543595034E+00  8.5879890356E-01  7.0167017227E-01  8.1044723995E-01
  2.7986622074E+04  1.0834670606E+01  5.9530814713E+00  8.6793098307E-01  7.0799373630E-01  8.1121105839E-01
  2.8083612040E+04  1.0894753200E+01  5.9518081336E+00  8.7712800992E-01  7.1434290501E-01  8.1197161815E-01
  2.8180602007E+04  1.0955060538E+01  5.9506130136E+00  8.8639021870E-01  7.2071904706E-01  8.1272893602E-01
  2.8277591973E+04  1.1015509361E+01  5.9494343146E+00  8.9571784404E-01  7.2712079920E-01  8.1348302869E-01
  2.8374581940E+04  1.1076083040E+01  5.9482598839E+00  9.0511112060E-01  7.3354776890E-01  8.1423391274E-01
  2.8471571906E+04  1.1136781405E+01  5.9470896914E+00  9.1457028307E-01  7.3999980759E-01  8.1498160466E-01
  2.8568561873E+04  1.1197604287E+01  5.9459237075E+00  9.2409556616E-01  7.4647676533E-01  8.1572612086E-01
  2.8665551839E+04  1.1258630797E+01  5.9448345013E+00  9.3368720463E-01  7.5298001014E-01  8.1646747763E-01
  2.8762541806E+04  1.1319794510E+01  5.9437604927E+00  9.4334543325E-01  7.5950815504E-01  8.1720569119E-01
  2.8859531773E+04  1.1381082920E+01  5.9426902926E+00  9.5307048683E-01  7.6606081287E-01  8.1794077765E-01
  2.8956521739E+04  1.1442495862E+01  5.9416238750E+00  9.6286260022E-01  7.7263782903E-01  8.1867275305E-01
  2.9053511706E+04  1.1504033169E+01  5.9405612137E+00  9.7272200827E-01  7.7923904765E-01  8.1940163332E-01
  2.9150501672E+04  1.1565746349E+01  5.9395668657E+00  9.8264894588E-01  7.8586568073E-01  8.2012743431E-01
  2.9247491639E+04  1.1627598155E+01  5.9385936475E+00  9.9264364798E-01  7.9251662097E-01  8.2085017176E-01
  2.9344481605E+04  1.1689574319E+01  5.9376238099E+00  1.0027063495E+00  7.9919133971E-01  8.2156986134E-01
  2.9441471572E+04  1.1751674679E+01  5.9366573302E+00  1.0128372855E+00  8.0588967679E-01  8.2228651862E-01
  2.9538461538E+04  1.1813899074E+01  5.9356941858E+00  1.0230366909E+00  8.1261147085E-01  8.2300015908E-01
  2.9635451505E+04  1.1876271723E+01  5.9347841583E+00  1.0333048008E+00  8.1935762466E-01  8.2371079813E-01
  2.9732441472E+04  1.1938783422E+01  5.9339080466E+00  1.0436418502E+00  8.2612760968E-01  8.2441845106E-01
  2.9829431438E+04  1.2001418962E+01  5.9330349170E+00  1.0540480743E+00  8.3292061113E-01  8.2512313310E-01
  2.9926421405E+04  1.2064178185E+01  5.9321647496E+00  1.0645237081E+00  8.3973646370E-01  8.2582485936E-01
  3.0023411371E+04  1.2127060931E+01  5.9312975248E+00  1.0750897231E+00  8.4658785933E-01  8.2652364491E-01
  3.0120401338E+04  1.2190075821E+01  5.9304617521E+00  1.0857916742E+00  8.5350313233E-01  8.2721950469E-01
  3.0217391304E+04  1.2253229586E+01  5.9296792275E+00  1.0965651745E+00  8.6044241540E-01  8.2791245358E-01
  3.0314381271E+04  1.2316506580E+01  5.9288993134E+00  1.1074104700E+00  8.6740442965E-01  8.2860250637E-01
  3.0411371237E+04  1.2379906647E+01  5.9281219927E+00  1.1183278063E+00  8.7438900191E-01  8.2928967774E-01
  3.0508361204E+04  1.2443429633E+01  5.9273472485E+00  1.1293174294E+00  8.8139595790E-01  8.2997398232E-01
  3.0605351171E+04  1.2507075901E+01  5.9265761202E+00  1.1403795854E+00  8.8842514860E-01  8.3065543465E-01
  3.0702341137E+04  1.2570882244E+01  5.9258837637E+00  1.1515145200E+00  8.9547830293E-01  8.3133404916E-01
  3.0799331104E+04  1.2634811314E+01  5.9251936714E+00  1.1627224795E+00  9.0255336617E-01  8.3200984023E-01
  3.0896321070E+04  1.2698862958E+01  5.9245058289E+00  1.1740037099E+00  9.0965016065E-01  8.3268282214E-01
  3.0993311037E+04  1.2763037026E+01  5.9238202217E+00  1.1853584574E+00  9.1676850771E-01  8.3335300908E-01
  3.1090301003E+04  1.2827333367E+01  5.9231368357E+00  1.1967869681E+00  9.2390822774E-01  8.3402041518E-01
  3.1187290970E+04  1.2891784102E+01  5.9224991187E+00  1.2082894883E+00  9.3107038265E-01  8.3468505447E-01
