#[MATERIAL DEFINITION FOR MC-GPU: interaction mean free path and sampling data from PENELOPE 2006]
#[MATERIAL NAME]
# MATERIAL7                                                     
#[NOMINAL DENSITY (g/cm^3)]
#   1.00000000
#[NUMBER OF DATA VALUES]
#   1495
#[MEAN FREE PATHS (cm) (ie, average distance between interactions)]
#[Energy (eV)     | Rayleigh        | Compton         | Photoelectric   | TOTAL (+pair prod) (cm) | Rayleigh: max cumul prob F^2]
  5.0000000000E+03  2.0490044823E+00  7.8019225192E+00  2.8077548680E-02  2.7600018179E-02  3.4370023139E-01
  5.0969899666E+03  2.0945837447E+00  7.7325216403E+00  2.9758000825E-02  2.9230233168E-02  3.4862413479E-01
  5.1939799331E+03  2.1406384529E+00  7.6662595656E+00  3.1504391130E-02  3.0922225383E-02  3.5345047010E-01
  5.2909698997E+03  2.1871581655E+00  7.6029415710E+00  3.3317996980E-02  3.2677013966E-02  3.5818390627E-01
  5.3879598662E+03  2.2341322930E+00  7.5423874401E+00  3.5200095934E-02  3.4495606968E-02  3.6282884084E-01
  5.4849498328E+03  2.2815501309E+00  7.4844301666E+00  3.7153041483E-02  3.6380032496E-02  3.6738971462E-01
  5.5819397993E+03  2.3294008938E+00  7.4289147937E+00  3.9190142036E-02  3.8342786335E-02  3.7187081613E-01
  5.6789297659E+03  2.3776737490E+00  7.3756973754E+00  4.1300838094E-02  4.0373465429E-02  3.7627615354E-01
  5.7759197324E+03  2.4263578509E+00  7.3246440443E+00  4.3486732696E-02  4.2473332509E-02  3.8060962413E-01
  5.8729096990E+03  2.4754423755E+00  7.2756301730E+00  4.5749265394E-02  4.4643479334E-02  3.8487502830E-01
  5.9698996656E+03  2.5249165607E+00  7.2285396123E+00  4.8089442856E-02  4.6884571615E-02  3.8907593178E-01
  6.0668896321E+03  2.5747700470E+00  7.1832636530E+00  5.0517392612E-02  4.9205916717E-02  3.9321572885E-01
  6.1638795987E+03  2.6249934524E+00  7.1396998383E+00  5.3030504215E-02  5.1604682275E-02  3.9729773127E-01
  6.2608695652E+03  2.6755783466E+00  7.0977515911E+00  5.5626352590E-02  5.4078223773E-02  4.0132507574E-01
  6.3578595318E+03  2.7265164952E+00  7.0573286618E+00  5.8306311211E-02  5.6627491769E-02  4.0530072317E-01
  6.4548494983E+03  2.7778115649E+00  7.0183902312E+00  6.1071754530E-02  5.9253430308E-02  4.0922747626E-01
  6.5518394649E+03  2.8294573209E+00  6.9808648716E+00  6.3924057955E-02  6.1956962889E-02  4.1310800000E-01
  6.6488294314E+03  2.8814333030E+00  6.9446328618E+00  6.6864597838E-02  6.4738986041E-02  4.1694486572E-01
  6.7458193980E+03  2.9337315320E+00  6.9096243948E+00  6.9894751456E-02  6.7600388423E-02  4.2074045427E-01
  6.8428093645E+03  2.9863442677E+00  6.8757741177E+00  7.3015896992E-02  7.0542042268E-02  4.2449701751E-01
  6.9397993311E+03  3.0392640393E+00  6.8430208225E+00  7.6229413525E-02  7.3564803051E-02  4.2821670845E-01
  7.0367892977E+03  3.0924847607E+00  6.8113113890E+00  7.9548668047E-02  7.6680648679E-02  4.3190159092E-01
  7.1337792642E+03  3.1460314150E+00  6.7807146446E+00  8.2984243661E-02  7.9898891214E-02  4.3555362951E-01
  7.2307692308E+03  3.1998659257E+00  6.7510534330E+00  8.6518673356E-02  8.3202728499E-02  4.3917458944E-01
  7.3277591973E+03  3.2539831466E+00  6.7222797697E+00  9.0153413447E-02  8.6592995811E-02  4.4276612625E-01
  7.4247491639E+03  3.3083781462E+00  6.6943486855E+00  9.3889921724E-02  9.0070509513E-02  4.4632983963E-01
  7.5217391304E+03  3.3630631638E+00  6.6672828444E+00  9.7729657429E-02  9.3636092624E-02  4.4986727882E-01
  7.6187290970E+03  3.4180375594E+00  6.6410590911E+00  1.0167408124E-01  9.7290534404E-02  4.5337991262E-01
  7.7157190635E+03  3.4732748695E+00  6.6155567040E+00  1.0572465525E-01  1.0103456113E-01  4.5686901465E-01
  7.8127090301E+03  3.5287707901E+00  6.5907405612E+00  1.0988284295E-01  1.0486891006E-01  4.6033578289E-01
  7.9096989967E+03  3.5845448713E+00  6.5666691552E+00  1.1415010920E-01  1.0879434462E-01  4.6378138659E-01
  8.0066889632E+03  3.6405845633E+00  6.5432813715E+00  1.1852955611E-01  1.1281303395E-01  4.6720696820E-01
  8.1036789298E+03  3.6968696433E+00  6.5204831532E+00  1.2304390425E-01  1.1694480751E-01  4.7061356878E-01
  8.2006688963E+03  3.7534038260E+00  6.4982738233E+00  1.2767326832E-01  1.2117092294E-01  4.7400207591E-01
  8.2976588629E+03  3.8102128671E+00  6.4767334863E+00  1.3241916134E-01  1.2549210914E-01  4.7737334946E-01
  8.3946488294E+03  3.8672580441E+00  6.4557014484E+00  1.3728309796E-01  1.2990891898E-01  4.8072823637E-01
  8.4916387960E+03  3.9245380626E+00  6.4351603753E+00  1.4226669720E-01  1.3442205784E-01  4.8406755108E-01
  8.5886287625E+03  3.9820926475E+00  6.4152401811E+00  1.4737289445E-01  1.3903349604E-01  4.8739196716E-01
  8.6856187291E+03  4.0398748598E+00  6.3957590948E+00  1.5260179509E-01  1.4374241360E-01  4.9070210204E-01
  8.7826086957E+03  4.0978875044E+00  6.3767168081E+00  1.5795492337E-01  1.4854936810E-01  4.9399856821E-01
  8.8795986622E+03  4.1561646694E+00  6.3582207919E+00  1.6343380516E-01  1.5345500138E-01  4.9728196694E-01
  8.9765886288E+03  4.2146614051E+00  6.3401049242E+00  1.6903996786E-01  1.5845967589E-01  5.0055280045E-01
  9.0735785953E+03  4.2733928931E+00  6.3224121194E+00  1.7479909426E-01  1.6358507764E-01  5.0381150107E-01
  9.1705685619E+03  4.3323715483E+00  6.3051718643E+00  1.8069782502E-01  1.6881850207E-01  5.0705849951E-01
  9.2675585284E+03  4.3915631753E+00  6.2882621963E+00  1.8673026517E-01  1.7415370678E-01  5.1029422195E-01
  9.3645484950E+03  4.4510044565E+00  6.2717902097E+00  1.9289799386E-01  1.7959126356E-01  5.1351901873E-01
  9.4615384615E+03  4.5106695549E+00  6.2556634733E+00  1.9920259200E-01  1.8513147224E-01  5.1673318029E-01
  9.5585284281E+03  4.5705536278E+00  6.2398604071E+00  2.0564684179E-01  1.9077571811E-01  5.1993699786E-01
  9.6555183946E+03  4.6306878407E+00  6.2244623289E+00  2.1223163607E-01  1.9652388701E-01  5.2313075844E-01
  9.7525083612E+03  4.6910254112E+00  6.2093259605E+00  2.1895815324E-01  2.0237573680E-01  5.2631468129E-01
  9.8494983278E+03  4.7516115670E+00  6.1945707723E+00  2.2582798408E-01  2.0833178094E-01  5.2948894771E-01
  9.9464882943E+03  4.8124103529E+00  6.1800884924E+00  2.3284272116E-01  2.1439211819E-01  5.3265374236E-01
  1.0043478261E+04  4.8734344049E+00  6.1659072966E+00  2.4001933633E-01  2.2057004331E-01  5.3580926380E-01
  1.0140468227E+04  4.9346916483E+00  6.1520357190E+00  2.4736424883E-01  2.2686971879E-01  5.3895563485E-01
  1.0237458194E+04  4.9961540757E+00  6.1383985372E+00  2.5486064895E-01  2.3327555775E-01  5.4209291397E-01
  1.0334448161E+04  5.0578712490E+00  6.1250998151E+00  2.6251017711E-01  2.3978800428E-01  5.4522116455E-01
  1.0431438127E+04  5.1197802156E+00  6.1119901433E+00  2.7031447567E-01  2.4640685576E-01  5.4834045496E-01
  1.0528428094E+04  5.1819555235E+00  6.0992199333E+00  2.7827518895E-01  2.5313265531E-01  5.5145085834E-01
  1.0625418060E+04  5.2443253024E+00  6.0866315288E+00  2.8639396314E-01  2.5996507921E-01  5.5455245239E-01
  1.0722408027E+04  5.3069510503E+00  6.0743392999E+00  2.9467244638E-01  2.6690455580E-01  5.5764529767E-01
  1.0819397993E+04  5.3697839421E+00  6.0622412648E+00  3.0311228866E-01  2.7395082601E-01  5.6072936540E-01
  1.0916387960E+04  5.4328643675E+00  6.0504047817E+00  3.1171514185E-01  2.8110414968E-01  5.6380461374E-01
  1.1013377926E+04  5.4961623439E+00  6.0387681996E+00  3.2048265967E-01  2.8836431703E-01  5.6687100686E-01
  1.1110367893E+04  5.5597019238E+00  6.0273666002E+00  3.2941649767E-01  2.9573143942E-01  5.6992851434E-01
  1.1207357860E+04  5.6234665931E+00  6.0161643860E+00  3.3853418657E-01  3.0321806510E-01  5.7297711099E-01
  1.1304347826E+04  5.6874700314E+00  6.0051780734E+00  3.4786421965E-01  3.1084543758E-01  5.7601677634E-01
  1.1401337793E+04  5.7517026044E+00  5.9943848377E+00  3.5736822285E-01  3.1858105540E-01  5.7904746068E-01
  1.1498327759E+04  5.8161748200E+00  5.9837953824E+00  3.6704791436E-01  3.2642484854E-01  5.8206906552E-01
  1.1595317726E+04  5.8808760770E+00  5.9733873066E+00  3.7690501445E-01  3.3437655908E-01  5.8508149514E-01
  1.1692307692E+04  5.9458221922E+00  5.9631773578E+00  3.8694124554E-01  3.4243610211E-01  5.8808465950E-01
  1.1789297659E+04  6.0109924507E+00  5.9531320825E+00  3.9715833208E-01  3.5060308505E-01  5.9107847407E-01
  1.1886287625E+04  6.0764177800E+00  5.9432852875E+00  4.0755800062E-01  3.5887748482E-01  5.9406285963E-01
  1.1983277592E+04  6.1420568628E+00  5.9335818086E+00  4.1814197973E-01  3.6725868873E-01  5.9703773137E-01
  1.2080267559E+04  6.2079669025E+00  5.9240827392E+00  4.2891200006E-01  3.7574683157E-01  6.0000296576E-01
  1.2177257525E+04  6.2740741068E+00  5.9147013152E+00  4.3986979423E-01  3.8434097479E-01  6.0295843587E-01
  1.2274247492E+04  6.3404745249E+00  5.9055354008E+00  4.5101709689E-01  3.9304152873E-01  6.0590402062E-01
  1.2371237458E+04  6.4070485913E+00  5.8964574663E+00  4.6235564468E-01  4.0184710066E-01  6.0883960459E-01
  1.2468227425E+04  6.4739452628E+00  5.8876109546E+00  4.7388717621E-01  4.1075851842E-01  6.1176507784E-01
  1.2565217391E+04  6.5410139171E+00  5.8788461125E+00  4.8563037872E-01  4.1978670391E-01  6.1468032818E-01
  1.2662207358E+04  6.6083848604E+00  5.8702796540E+00  4.9757918240E-01  4.2892628735E-01  6.1758521756E-01
  1.2759197324E+04  6.6759579624E+00  5.8618178415E+00  5.0972726554E-01  4.3816980793E-01  6.2047960686E-01
  1.2856187291E+04  6.7438014698E+00  5.8535147219E+00  5.2207639473E-01  4.4751732965E-01  6.2336336285E-01
  1.2953177258E+04  6.8118898020E+00  5.8453458524E+00  5.3462833855E-01  4.5696807263E-01  6.2623635800E-01
  1.3050167224E+04  6.8802049667E+00  5.8372918051E+00  5.4738486762E-01  4.6652126480E-01  6.2909847070E-01
  1.3147157191E+04  6.9488197548E+00  5.8294063867E+00  5.6034775457E-01  4.7617699660E-01  6.3194959247E-01
  1.3244147157E+04  7.0176069477E+00  5.8215894629E+00  5.7351877400E-01  4.8593339525E-01  6.3478958117E-01
  1.3341137124E+04  7.0867572967E+00  5.8139767665E+00  5.8689970250E-01  4.9579166675E-01  6.3761828463E-01
  1.3438127090E+04  7.1560831385E+00  5.8064307599E+00  6.0049231862E-01  5.0574927520E-01  6.4043555686E-01
  1.3535117057E+04  7.2257109586E+00  5.7990353102E+00  6.1429840286E-01  5.1580676617E-01  6.4324125790E-01
  1.3632107023E+04  7.2955873043E+00  5.7917518387E+00  6.2831973767E-01  5.2596287895E-01  6.4603525371E-01
  1.3729096990E+04  7.3656882591E+00  5.7845612701E+00  6.4259023431E-01  5.3623895563E-01  6.4881741606E-01
  1.3826086957E+04  7.4361271878E+00  5.7775323591E+00  6.5713624779E-01  5.4665201719E-01  6.5158762241E-01
  1.3923076923E+04  7.5067402646E+00  5.7705610355E+00  6.7190621268E-01  5.5716205752E-01  6.5434575577E-01
  1.4020066890E+04  7.5777094384E+00  5.7637528311E+00  6.8690197673E-01  5.6777022791E-01  6.5709170464E-01
  1.4117056856E+04  7.6488985095E+00  5.7570255322E+00  7.0212538990E-01  5.7847418297E-01  6.5982536139E-01
  1.4214046823E+04  7.7203395458E+00  5.7503945636E+00  7.1757830432E-01  5.8927337635E-01  6.6254659787E-01
  1.4311036789E+04  7.7921172271E+00  5.7439042036E+00  7.3326257428E-01  6.0016790692E-01  6.6525527708E-01
  1.4408026756E+04  7.8640706628E+00  5.7374649339E+00  7.4918005623E-01  6.1115496499E-01  6.6795126923E-01
  1.4505016722E+04  7.9364008645E+00  5.7311794372E+00  7.6533260876E-01  6.2223598855E-01  6.7063445055E-01
  1.4602006689E+04  8.0089570967E+00  5.7249677414E+00  7.8172209259E-01  6.3340823068E-01  6.7330470320E-01
  1.4698996656E+04  8.0817525651E+00  5.7188343070E+00  7.9835037055E-01  6.4467083310E-01  6.7596191512E-01
  1.4795986622E+04  8.1549246884E+00  5.7128438636E+00  8.1521930758E-01  6.5602453155E-01  6.7860597997E-01
  1.4892976589E+04  8.2282747288E+00  5.7068987740E+00  8.3233077072E-01  6.6746579815E-01  6.8123679699E-01
  1.4989966555E+04  8.3019753316E+00  5.7010773107E+00  8.4968662906E-01  6.7899578846E-01  6.8385427091E-01
  1.5086956522E+04  8.3759561007E+00  5.6953451270E+00  8.6733453574E-01  6.9064159738E-01  6.8645831118E-01
  1.5183946488E+04  8.4501157115E+00  5.6896553843E+00  8.8523756096E-01  7.0237572138E-01  6.8904881763E-01
  1.5280936455E+04  8.5247338590E+00  5.6841278523E+00  9.0339241793E-01  7.1419752727E-01  6.9162568372E-01
  1.5377926421E+04  8.5995388496E+00  5.6786432906E+00  9.2180101302E-01  7.2610223260E-01  6.9418880894E-01
  1.5474916388E+04  8.6746066146E+00  5.6732324263E+00  9.4046525482E-01  7.3808970800E-01  6.9673809858E-01
  1.5571906355E+04  8.7500697744E+00  5.6679478861E+00  9.5938705406E-01  7.5016071379E-01  6.9927346360E-01
  1.5668896321E+04  8.8257147312E+00  5.6627010355E+00  9.7856832362E-01  7.6231103994E-01  7.0179482056E-01
  1.5765886288E+04  8.9017055974E+00  5.6575553771E+00  9.9801097852E-01  7.7454186510E-01  7.0430209149E-01
  1.5862876254E+04  8.9780236108E+00  5.6525016653E+00  1.0177169359E+00  7.8685177203E-01  7.0679520375E-01
  1.5959866221E+04  9.0545247384E+00  5.6474832323E+00  1.0376881151E+00  7.9923737636E-01  7.0927408998E-01
  1.6056856187E+04  9.1314460352E+00  5.6425872029E+00  1.0579264374E+00  8.1170105705E-01  7.1173868358E-01
  1.6153846154E+04  9.2086354235E+00  5.6377554383E+00  1.0784338264E+00  8.2423929859E-01  7.1418890922E-01
  1.6250836120E+04  9.2860093749E+00  5.6329566980E+00  1.0992122076E+00  8.3684950206E-01  7.1662469479E-01
  1.6347826087E+04  9.3638669554E+00  5.6282954543E+00  1.1202635086E+00  8.4953517438E-01  7.1904597373E-01
  1.6444816054E+04  9.4419446752E+00  5.6236772928E+00  1.1415896592E+00  8.6229087775E-01  7.2145268485E-01
  1.6541806020E+04  9.5202117513E+00  5.6190911247E+00  1.1631925911E+00  8.7511476409E-01  7.2384477226E-01
  1.6638795987E+04  9.5990066859E+00  5.6146494218E+00  1.1850742381E+00  8.8801117993E-01  7.2622218523E-01
  1.6735785953E+04  9.6779901143E+00  5.6102370157E+00  1.2072365360E+00  9.0097321193E-01  7.2858487807E-01
  1.6832775920E+04  9.7571861297E+00  5.6058614560E+00  1.2296814227E+00  9.1399988749E-01  7.3093281002E-01
  1.6929765886E+04  9.8369027342E+00  5.6016200046E+00  1.2524108381E+00  9.2709523909E-01  7.3326594106E-01
  1.7026755853E+04  9.9168096551E+00  5.5974059646E+00  1.2754267240E+00  9.4025225182E-01  7.3558422506E-01
  1.7123745819E+04  9.9969353424E+00  5.5932278699E+00  1.2987310243E+00  9.5347002390E-01  7.3788761934E-01
  1.7220735786E+04  1.0077591667E+01  5.5891795902E+00  1.3223256849E+00  9.6675284918E-01  7.4017608633E-01
  1.7317725753E+04  1.0158440258E+01  5.5851569526E+00  1.3462126536E+00  9.8009332517E-01  7.4244959343E-01
  1.7414715719E+04  1.0239494507E+01  5.5811637315E+00  1.3703938801E+00  9.9349027031E-01  7.4470811289E-01
  1.7511705686E+04  1.0321108762E+01  5.5773019509E+00  1.3948948992E+00  1.0069612547E+00  7.4695162170E-01
  1.7608695652E+04  1.0402917356E+01  5.5734641502E+00  1.4198691966E+00  1.0205761054E+00  7.4918010144E-01
  1.7705685619E+04  1.0484919679E+01  5.5696500495E+00  1.4451495523E+00  1.0342443742E+00  7.5139354590E-01
  1.7802675585E+04  1.0567485555E+01  5.5659621873E+00  1.4707380059E+00  1.0479718558E+00  7.5359197537E-01
  1.7899665552E+04  1.0650270540E+01  5.5623030669E+00  1.4966365991E+00  1.0617505125E+00  7.5577537810E-01
  1.7996655518E+04  1.0733251438E+01  5.5586661061E+00  1.5228473760E+00  1.0755784085E+00  7.5794374238E-01
  1.8093645485E+04  1.0816747036E+01  5.5551366813E+00  1.5493723829E+00  1.0894605761E+00  7.6009706095E-01
  1.8190635452E+04  1.0900523688E+01  5.5516504471E+00  1.5762136682E+00  1.1033909558E+00  7.6223533081E-01
  1.8287625418E+04  1.0984498521E+01  5.5481849221E+00  1.6033732829E+00  1.1173663858E+00  7.6435855316E-01
  1.8384615385E+04  1.1068914357E+01  5.5448029503E+00  1.6308532799E+00  1.1313905308E+00  7.6646673325E-01
  1.8481605351E+04  1.1153698116E+01  5.5414841215E+00  1.6586557145E+00  1.1454605376E+00  7.6855987417E-01
  1.8578595318E+04  1.1238682413E+01  5.5381846350E+00  1.6867826443E+00  1.1595714097E+00  7.7063795549E-01
  1.8675585284E+04  1.1324007303E+01  5.5349395213E+00  1.7152361288E+00  1.1737247400E+00  7.7270100135E-01
  1.8772575251E+04  1.1409813784E+01  5.5317829086E+00  1.7440201798E+00  1.1879232107E+00  7.7474904643E-01
  1.8869565217E+04  1.1495823243E+01  5.5286443493E+00  1.7731359773E+00  1.2021588528E+00  7.7678212828E-01
  1.8966555184E+04  1.1582044242E+01  5.5255258613E+00  1.8025846109E+00  1.2164299193E+00  7.7880028722E-01
  1.9063545151E+04  1.1668889224E+01  5.5225265476E+00  1.8323681502E+00  1.2307444514E+00  7.8080356621E-01
  1.9160535117E+04  1.1755939711E+01  5.5195440707E+00  1.8624886673E+00  1.2450915596E+00  7.8279201082E-01
  1.9257525084E+04  1.1843195144E+01  5.5165782515E+00  1.8929482361E+00  1.2594697572E+00  7.8476565945E-01
  1.9354515050E+04  1.1930941469E+01  5.5136956365E+00  1.9237489327E+00  1.2738843888E+00  7.8672451935E-01
  1.9451505017E+04  1.2019049003E+01  5.5108646464E+00  1.9548928355E+00  1.2883311068E+00  7.8866860788E-01
  1.9548494983E+04  1.2107364104E+01  5.5080491800E+00  1.9863820249E+00  1.3028048348E+00  7.9059794713E-01
  1.9645484950E+04  1.2195985966E+01  5.5052715753E+00  2.0182185834E+00  1.3173065572E+00  7.9251256285E-01
  1.9742474916E+04  1.2285166716E+01  5.5025877093E+00  2.0504045959E+00  1.3318411798E+00  7.9441248433E-01
  1.9839464883E+04  1.2374557738E+01  5.4999182949E+00  2.0829421489E+00  1.3463987917E+00  7.9629774427E-01
  1.9936454849E+04  1.2464158495E+01  5.4972631844E+00  2.1158333315E+00  1.3609779451E+00  7.9816837867E-01
  2.0033444816E+04  1.2554306214E+01  5.4946955977E+00  2.1490964659E+00  1.3755925024E+00  8.0002442319E-01
  2.0130434783E+04  1.2644788785E+01  5.4921681088E+00  2.1827491090E+00  1.3902419105E+00  8.0186591059E-01
  2.0227424749E+04  1.2735483883E+01  5.4896539226E+00  2.2167629465E+00  1.4049090644E+00  8.0369287640E-01
  2.0324414716E+04  1.2826477388E+01  5.4871712517E+00  2.2511400917E+00  1.4195948279E+00  8.0550535944E-01
  2.0421404682E+04  1.2918062965E+01  5.4847815455E+00  2.2858826602E+00  1.4343057250E+00  8.0730340172E-01
  2.0518394649E+04  1.3009863897E+01  5.4824041955E+00  2.3209927697E+00  1.4490305027E+00  8.0908704831E-01
  2.0615384615E+04  1.3101879669E+01  5.4800390799E+00  2.3564725401E+00  1.4637677661E+00  8.1085634717E-01
  2.0712374582E+04  1.3194380536E+01  5.4777420090E+00  2.3923240933E+00  1.4785236043E+00  8.1261133267E-01
  2.0809364548E+04  1.3287297244E+01  5.4754975292E+00  2.4285495532E+00  1.4932949475E+00  8.1435205877E-01
  2.0906354515E+04  1.3380431653E+01  5.4732643996E+00  2.4651510459E+00  1.5080750302E+00  8.1607860085E-01
  2.1003344482E+04  1.3473783258E+01  5.4710425106E+00  2.5021306998E+00  1.5228624979E+00  8.1779103587E-01
  2.1100334448E+04  1.3567781005E+01  5.4689180946E+00  2.5394906449E+00  1.5376683482E+00  8.1948944227E-01
  2.1197324415E+04  1.3662043910E+01  5.4668132202E+00  2.5772330137E+00  1.5524805594E+00  8.2117389989E-01
  2.1294314381E+04  1.3756526903E+01  5.4647187593E+00  2.6153599404E+00  1.5672965421E+00  8.2284448983E-01
  2.1391304348E+04  1.3851311006E+01  5.4626506876E+00  2.6538735617E+00  1.5821173990E+00  8.2450128069E-01
  2.1488294314E+04  1.3946712161E+01  5.4606705104E+00  2.6927760158E+00  1.5969513447E+00  8.2614432037E-01
  2.1585284281E+04  1.4042336317E+01  5.4586999640E+00  2.7320694433E+00  1.6117855564E+00  8.2777365931E-01
  2.1682274247E+04  1.4138182992E+01  5.4567389583E+00  2.7717559868E+00  1.6266187616E+00  8.2938935070E-01
  2.1779264214E+04  1.4234430855E+01  5.4548218167E+00  2.8118377908E+00  1.6414551987E+00  8.3099145042E-01
  2.1876254181E+04  1.4331205841E+01  5.4529718308E+00  2.8523170018E+00  1.6562976738E+00  8.3258001689E-01
  2.1973244147E+04  1.4428206290E+01  5.4511306521E+00  2.8931957685E+00  1.6711357891E+00  8.3415511096E-01
  2.2070234114E+04  1.4525431728E+01  5.4492982000E+00  2.9344762413E+00  1.6859683239E+00  8.3571679580E-01
  2.2167224080E+04  1.4623128527E+01  5.4475206002E+00  2.9761605729E+00  1.7008019138E+00  8.3726513681E-01
  2.2264214047E+04  1.4721292324E+01  5.4457960833E+00  3.0182509178E+00  1.7156354293E+00  8.3880020147E-01
  2.2361204013E+04  1.4819684085E+01  5.4440796051E+00  3.0607508485E+00  1.7304606243E+00  8.4032205930E-01
  2.2458193980E+04  1.4918303347E+01  5.4423710934E+00  3.1039354222E+00  1.7453626088E+00  8.4183078171E-01
  2.2555183946E+04  1.5017432728E+01  5.4407221348E+00  3.1475389925E+00  1.7602629485E+00  8.4332644192E-01
  2.2652173913E+04  1.5117000291E+01  5.4391186402E+00  3.1915637928E+00  1.7751583309E+00  8.4480911346E-01
  2.2749163880E+04  1.5216798361E+01  5.4375224662E+00  3.2360120591E+00  1.7900408570E+00  8.4627886204E-01
  2.2846153846E+04  1.5316826483E+01  5.4359335484E+00  3.2808860291E+00  1.8049093947E+00  8.4773575151E-01
  2.2943143813E+04  1.5417370540E+01  5.4344027840E+00  3.3261879432E+00  1.8197725299E+00  8.4917984787E-01
  2.3040133779E+04  1.5518356796E+01  5.4329161196E+00  3.3719200435E+00  1.8346268691E+00  8.5061121921E-01
  2.3137123746E+04  1.5619576140E+01  5.4314361046E+00  3.4180845748E+00  1.8494643050E+00  8.5202993557E-01
  2.3234113712E+04  1.5721028128E+01  5.4299626813E+00  3.4646837835E+00  1.8642837647E+00  8.5343606885E-01
  2.3331103679E+04  1.5822967386E+01  5.4285400853E+00  3.5117199187E+00  1.8790930948E+00  8.5482969271E-01
  2.3428093645E+04  1.5925387227E+01  5.4271662955E+00  3.5591952312E+00  1.8938912152E+00  8.5621088248E-01
  2.3525083612E+04  1.6028042777E+01  5.4257985269E+00  3.6071119744E+00  1.9086686238E+00  8.5757971504E-01
  2.3622073579E+04  1.6130933600E+01  5.4244367283E+00  3.6554724034E+00  1.9234243084E+00  8.5893626875E-01
  2.3719063545E+04  1.6234246993E+01  5.4231126667E+00  3.7042787756E+00  1.9381640118E+00  8.6028062335E-01
  2.3816053512E+04  1.6338115273E+01  5.4218480152E+00  3.7535333508E+00  1.9528916782E+00  8.6161285986E-01
  2.3913043478E+04  1.6442221920E+01  5.4205887966E+00  3.8032383904E+00  1.9675950663E+00  8.6293305665E-01
  2.4010033445E+04  1.6546566510E+01  5.4193349656E+00  3.8533961584E+00  1.9822732252E+00  8.6424128543E-01
  2.4107023411E+04  1.6651231360E+01  5.4181001699E+00  3.9040089207E+00  1.9969282691E+00  8.6553761861E-01
  2.4204013378E+04  1.6756562887E+01  5.4169411241E+00  3.9550789451E+00  2.0115721952E+00  8.6682213021E-01
  2.4301003344E+04  1.6862135478E+01  5.4157869600E+00  4.0066085019E+00  2.0261885198E+00  8.6809489579E-01
  2.4397993311E+04  1.6967948719E+01  5.4146376378E+00  4.0585998632E+00  2.0407763531E+00  8.6935599231E-01
  2.4494983278E+04  1.7074002199E+01  5.4134931178E+00  4.1110553032E+00  2.0553348210E+00  8.7060549810E-01
  2.4591973244E+04  1.7180750252E+01  5.4124263969E+00  4.1639770984E+00  2.0698803471E+00  8.7184349273E-01
  2.4688963211E+04  1.7287803584E+01  5.4113739789E+00  4.2173675270E+00  2.0843975142E+00  8.7307005693E-01
  2.4785953177E+04  1.7395100310E+01  5.4103258906E+00  4.2712288697E+00  2.0988831705E+00  8.7428527253E-01
  2.4882943144E+04  1.7502640027E+01  5.4092820973E+00  4.3255634088E+00  2.1133365026E+00  8.7548922234E-01
  2.4979933110E+04  1.7610695329E+01  5.4082854570E+00  4.3803734289E+00  2.1277673372E+00  8.7668199059E-01
  2.5076923077E+04  1.7719243350E+01  5.4073316181E+00  4.4357668504E+00  2.1421988152E+00  8.7786367628E-01
  2.5173913043E+04  1.7828037539E+01  5.4063816284E+00  4.4916704616E+00  2.1566023790E+00  8.7903436562E-01
  2.5270903010E+04  1.7937077501E+01  5.4054354578E+00  4.5480593211E+00  2.1709708372E+00  8.8019413712E-01
  2.5367892977E+04  1.8046411618E+01  5.4045006316E+00  4.6049357509E+00  2.1853053963E+00  8.8134307033E-01
  2.5464882943E+04  1.8156462874E+01  5.4036421563E+00  4.6623020751E+00  2.1996223702E+00  8.8248124572E-01
  2.5561872910E+04  1.8266763056E+01  5.4027870803E+00  4.7201606199E+00  2.2139024279E+00  8.8360874466E-01
  2.5658862876E+04  1.8377311780E+01  5.4019353770E+00  4.7785137137E+00  2.2281448701E+00  8.8472564927E-01
  2.5755852843E+04  1.8488108663E+01  5.4010870206E+00  4.8373636869E+00  2.2423490123E+00  8.8583204245E-01
  2.5852842809E+04  1.8599456613E+01  5.4002881888E+00  4.8967128719E+00  2.2565267164E+00  8.8692800771E-01
  2.5949832776E+04  1.8711268783E+01  5.3995249173E+00  4.9565636035E+00  2.2706739077E+00  8.8801362918E-01
  2.6046822742E+04  1.8823332230E+01  5.3987646005E+00  5.0169182183E+00  2.2847812021E+00  8.8908899149E-01
  2.6143812709E+04  1.8935646579E+01  5.3980072162E+00  5.0777790551E+00  2.2988479731E+00  8.9015417648E-01
  2.6240802676E+04  1.9048212542E+01  5.3972529055E+00  5.1391484547E+00  2.3128736548E+00  8.9120925613E-01
  2.6337792642E+04  1.9161542250E+01  5.3965784835E+00  5.2010287601E+00  2.3268794936E+00  8.9225430531E-01
  2.6434782609E+04  1.9275125935E+01  5.3959066244E+00  5.2634223163E+00  2.3408433762E+00  8.9328940008E-01
  2.6531772575E+04  1.9388963230E+01  5.3952373091E+00  5.3263314702E+00  2.3547647324E+00  8.9431461730E-01
  2.6628762542E+04  1.9503053771E+01  5.3945705186E+00  5.3897585710E+00  2.3686430062E+00  8.9533003459E-01
  2.6725752508E+04  1.9617569809E+01  5.3939318759E+00  5.4537059697E+00  2.3824852039E+00  8.9633573029E-01
  2.6822742475E+04  1.9732678809E+01  5.3933456881E+00  5.5181760196E+00  2.3962982515E+00  8.9733178335E-01
  2.6919732441E+04  1.9848044091E+01  5.3927616795E+00  5.5831710758E+00  2.4100669828E+00  8.9831827327E-01
  2.7016722408E+04  1.9963665300E+01  5.3921798341E+00  5.6486934956E+00  2.4237908954E+00  8.9929528006E-01
  2.7113712375E+04  2.0079542082E+01  5.3916001363E+00  5.7147456381E+00  2.4374695009E+00  9.0026288416E-01
  2.7210702341E+04  2.0195975708E+01  5.3910667287E+00  5.7813298646E+00  2.4511158951E+00  9.0122116565E-01
  2.7307692308E+04  2.0312873583E+01  5.3905653962E+00  5.8484485385E+00  2.4647255937E+00  9.0217019983E-01
  2.7404682274E+04  2.0430030028E+01  5.3900658876E+00  5.9161069025E+00  2.4782894454E+00  9.0311006042E-01
  2.7501672241E+04  2.0547444698E+01  5.3895681897E+00  5.9843167732E+00  2.4918086330E+00  9.0404082181E-01
  2.7598662207E+04  2.0665117248E+01  5.3890722896E+00  6.0530685049E+00  2.5052805972E+00  9.0496255896E-01
  2.7695652174E+04  2.0783435174E+01  5.3886341756E+00  6.1223644721E+00  2.5187228570E+00  9.0587534739E-01
  2.7792642140E+04  2.0902130992E+01  5.3882145171E+00  6.1922070509E+00  2.5321227938E+00  9.0677926306E-01
  2.7889632107E+04  2.1021087647E+01  5.3877963531E+00  6.2625986198E+00  2.5454746404E+00  9.0767438237E-01
  2.7986622074E+04  2.1140304804E+01  5.3873796731E+00  6.3335415589E+00  2.5587780204E+00  9.0856078204E-01
  2.8083612040E+04  2.1259782126E+01  5.3869644667E+00  6.4050382505E+00  2.5720325696E+00  9.0943853913E-01
  2.8180602007E+04  2.1379950386E+01  5.3866121622E+00  6.4770910789E+00  2.5852583917E+00  9.1030773133E-01
  2.8277591973E+04  2.1500452695E+01  5.3862711791E+00  6.5497024303E+00  2.5984383562E+00  9.1116844462E-01
  2.8374581940E+04  2.1621218086E+01  5.3859313850E+00  6.6228746927E+00  2.6115687912E+00  9.1202075190E-01
  2.8471571906E+04  2.1742246233E+01  5.3855927717E+00  6.6966102564E+00  2.6246493781E+00  9.1286472049E-01
  2.8568561873E+04  2.1863536808E+01  5.3852553311E+00  6.7709115134E+00  2.6376798099E+00  9.1370041835E-01
  2.8665551839E+04  2.1985520880E+01  5.3849797794E+00  6.8457808576E+00  2.6506807750E+00  9.1452791406E-01
  2.8762541806E+04  2.2107837707E+01  5.3847146420E+00  6.9212206850E+00  2.6636345752E+00  9.1534727671E-01
  2.8859531773E+04  2.2230419838E+01  5.3844504102E+00  6.9972333935E+00  2.6765376783E+00  9.1615857587E-01
  2.8956521739E+04  2.2353266956E+01  5.3841870778E+00  7.0738213829E+00  2.6893898199E+00  9.1696188154E-01
  2.9053511706E+04  2.2476378741E+01  5.3839246387E+00  7.1509870549E+00  2.7021907464E+00  9.1775726407E-01
  2.9150501672E+04  2.2600143671E+01  5.3837171819E+00  7.2287328132E+00  2.7149595823E+00  9.1854479411E-01
  2.9247491639E+04  2.2724282524E+01  5.3835252173E+00  7.3070610633E+00  2.7276823042E+00  9.1932454258E-01
  2.9344481605E+04  2.2848688879E+01  5.3833338950E+00  7.3859742127E+00  2.7403534145E+00  9.2009658061E-01
  2.9441471572E+04  2.2973362424E+01  5.3831432109E+00  7.4654746708E+00  2.7529726991E+00  9.2086097949E-01
  2.9538461538E+04  2.3098302851E+01  5.3829531605E+00  7.5455648488E+00  2.7655399537E+00  9.2161781063E-01
  2.9635451505E+04  2.3223813384E+01  5.3828055141E+00  7.6262471600E+00  2.7780704545E+00  9.2236714551E-01
  2.9732441472E+04  2.3349781250E+01  5.3826841945E+00  7.7075240193E+00  2.7905583692E+00  9.2310905565E-01
  2.9829431438E+04  2.3476018787E+01  5.3825632728E+00  7.7893978436E+00  2.8029939918E+00  9.2384361256E-01
  2.9926421405E+04  2.3602525693E+01  5.3824427462E+00  7.8718710520E+00  2.8153771545E+00  9.2457088772E-01
  3.0023411371E+04  2.3729301667E+01  5.3823226124E+00  7.9550649271E+00  2.8277227179E+00  9.2529095251E-01
  3.0120401338E+04  2.3856522242E+01  5.3822268190E+00  8.0392420471E+00  2.8400716125E+00  9.2600387818E-01
  3.0217391304E+04  2.3984325209E+01  5.3821736891E+00  8.1240346555E+00  2.8523835906E+00  9.2670973223E-01
  3.0314381271E+04  2.4112399986E+01  5.3821207300E+00  8.2094452517E+00  2.8646423798E+00  9.2740857584E-01
  3.0411371237E+04  2.4240746279E+01  5.3820679405E+00  8.2954763377E+00  2.8768478511E+00  9.2810047003E-01
  3.0508361204E+04  2.4369363795E+01  5.3820153197E+00  8.3821304170E+00  2.8889998840E+00  9.2878547618E-01
  3.0605351171E+04  2.4498258813E+01  5.3819637525E+00  8.4694099956E+00  2.9010987165E+00  9.2946365597E-01
  3.0702341137E+04  2.4627901493E+01  5.3819763343E+00  8.5573175813E+00  2.9131693203E+00  9.3013507131E-01
  3.0799331104E+04  2.4757818083E+01  5.3819888764E+00  8.6458556840E+00  2.9251864484E+00  9.3079978437E-01
  3.0896321070E+04  2.4888008297E+01  5.3820013791E+00  8.7350268157E+00  2.9371500120E+00  9.3145785744E-01
  3.0993311037E+04  2.5018471850E+01  5.3820138426E+00  8.8248334903E+00  2.9490599302E+00  9.3210935298E-01
  3.1090301003E+04  2.5149208456E+01  5.3820262672E+00  8.9152782240E+00  2.9609161299E+00  9.3275433351E-01
  3.1187290970E+04  2.5280492120E+01  5.3820751137E+00  9.0063635348E+00  2.9727334619E+00  9.3339286161E-01
