#[MATERIAL DEFINITION FOR MC-GPU: interaction mean free path and sampling data from PENELOPE 2006]
#[MATERIAL NAME]
# MATERIAL6                                                     
#[NOMINAL DENSITY (g/cm^3)]
#   1.00000000
#[NUMBER OF DATA VALUES]
#   1495
#[MEAN FREE PATHS (cm) (ie, average distance between interactions)]
#[Energy (eV)     | Rayleigh        | Compton         | Photoelectric   | TOTAL (+pair prod) (cm) | Rayleigh: max cumul prob F^2]
  5.0000000000E+03  2.1354225884E+00  7.6473531003E+00  3.0241617333E-02  2.9703496618E-02  3.4318372882E-01
  5.0969899666E+03  2.1829230368E+00  7.5835261810E+00  3.2057813326E-02  3.1462757434E-02  3.4809922774E-01
  5.1939799331E+03  2.2308998392E+00  7.5225203887E+00  3.3945657126E-02  3.3288911327E-02  3.5292148940E-01
  5.2909698997E+03  2.2793421993E+00  7.4641630062E+00  3.5906552767E-02  3.5183063750E-02  3.5765518035E-01
  5.3879598662E+03  2.3282391752E+00  7.4082940067E+00  3.7941904845E-02  3.7146307497E-02  3.6230465613E-01
  5.4849498328E+03  2.3775797145E+00  7.3547649348E+00  4.0054204566E-02  3.9180761541E-02  3.6687420373E-01
  5.5819397993E+03  2.4273526892E+00  7.3034379053E+00  4.2257007006E-02  4.1299091650E-02  3.7136808913E-01
  5.6789297659E+03  2.4775469314E+00  7.2541847049E+00  4.4539771108E-02  4.3490890854E-02  3.7579031017E-01
  5.7759197324E+03  2.5281512684E+00  7.2068859852E+00  4.6903954458E-02  4.5757237676E-02  3.8014461461E-01
  5.8729096990E+03  2.5791545590E+00  7.1614305359E+00  4.9351015672E-02  4.8099195909E-02  3.8443454278E-01
  5.9698996656E+03  2.6305457354E+00  7.1177146229E+00  5.1882414366E-02  5.0517814197E-02  3.8866362908E-01
  6.0668896321E+03  2.6823141748E+00  7.0756410661E+00  5.4509703514E-02  5.3023675383E-02  3.9283523040E-01
  6.1638795987E+03  2.7344503289E+00  7.0351181720E+00  5.7229824193E-02  5.5613470658E-02  3.9695249479E-01
  6.2608695652E+03  2.7869456918E+00  6.9960594185E+00  6.0039926853E-02  5.8284104523E-02  4.0101839964E-01
  6.3578595318E+03  2.8397919679E+00  6.9583838972E+00  6.2941520269E-02  6.1036595416E-02  4.0503576892E-01
  6.4548494983E+03  2.8929923999E+00  6.9220547488E+00  6.5936114574E-02  6.3871953341E-02  4.0900728855E-01
  6.5518394649E+03  2.9465406025E+00  6.8870077522E+00  6.9025221245E-02  6.6791165104E-02  4.1293552024E-01
  6.6488294314E+03  3.0004164427E+00  6.8531356616E+00  7.2210353076E-02  6.9795187562E-02  4.1682291398E-01
  6.7458193980E+03  3.0546119052E+00  6.8203757499E+00  7.5493024156E-02  7.2884967583E-02  4.2067181885E-01
  6.8428093645E+03  3.1091192191E+00  6.7886692668E+00  7.8874749852E-02  7.6061433045E-02  4.2448440930E-01
  6.9397993311E+03  3.1639308891E+00  6.7579611681E+00  8.2357046786E-02  7.9325492432E-02  4.2826265688E-01
  7.0367892977E+03  3.2190407671E+00  6.7282036218E+00  8.5953839368E-02  8.2689517871E-02  4.3200845811E-01
  7.1337792642E+03  3.2744726473E+00  6.6994572687E+00  8.9676175476E-02  8.6163129244E-02  4.3572364184E-01
  7.2307692308E+03  3.3301898926E+00  6.6715642429E+00  9.3506069510E-02  8.9729023734E-02  4.3940995114E-01
  7.3277591973E+03  3.3861875086E+00  6.6444815115E+00  9.7445119899E-02  9.3388079446E-02  4.4306894016E-01
  7.4247491639E+03  3.4424607027E+00  6.6181687147E+00  1.0149492693E-01  9.7141152601E-02  4.4670207202E-01
  7.5217391304E+03  3.4990212751E+00  6.5926456583E+00  1.0565709271E-01  1.0098910430E-01  4.5031076958E-01
  7.6187290970E+03  3.5558686630E+00  6.5678913973E+00  1.0993322116E-01  1.0493275824E-01  4.5389638902E-01
  7.7157190635E+03  3.6129772838E+00  6.5437981662E+00  1.1432491800E-01  1.0897286986E-01  4.5746011342E-01
  7.8127090301E+03  3.6703429345E+00  6.5203343480E+00  1.1883379069E-01  1.1311020387E-01  4.6100305966E-01
  7.9096989967E+03  3.7279846020E+00  6.4975516488E+00  1.2346144844E-01  1.1734555040E-01  4.6452632238E-01
  8.0066889632E+03  3.7858902014E+00  6.4753953409E+00  1.2821132141E-01  1.2168125602E-01  4.6803092274E-01
  8.1036789298E+03  3.8440401448E+00  6.4537814487E+00  1.3310865778E-01  1.2613919118E-01  4.7151773742E-01
  8.2006688963E+03  3.9024380971E+00  6.4327090944E+00  1.3813132446E-01  1.3069857069E-01  4.7498761229E-01
  8.2976588629E+03  3.9611097905E+00  6.4122497871E+00  1.4328098507E-01  1.3536014077E-01  4.7844137726E-01
  8.3946488294E+03  4.0200173873E+00  6.3922600531E+00  1.4855930524E-01  1.4012445894E-01  4.8187975979E-01
  8.4916387960E+03  4.0791596102E+00  6.3727241381E+00  1.5396807297E-01  1.4499225121E-01  4.8530340189E-01
  8.5886287625E+03  4.1385765420E+00  6.3537584022E+00  1.5951061859E-01  1.4996570482E-01  4.8871293873E-01
  8.6856187291E+03  4.1982215865E+00  6.3352000240E+00  1.6518695780E-01  1.5504378343E-01  4.9210896767E-01
  8.7826086957E+03  4.2580975646E+00  6.3170484785E+00  1.7099876800E-01  1.6022704073E-01  4.9549197991E-01
  8.8795986622E+03  4.3182395769E+00  6.2994004308E+00  1.7694772852E-01  1.6551612018E-01  4.9886244675E-01
  8.9765886288E+03  4.3786022020E+00  6.2821064875E+00  1.8303552065E-01  1.7091136214E-01  5.0222084991E-01
  9.0735785953E+03  4.4392010932E+00  6.2652051238E+00  1.8928873403E-01  1.7643492640E-01  5.0556759569E-01
  9.1705685619E+03  4.5000497437E+00  6.2487230806E+00  1.9569370958E-01  1.8207378866E-01  5.0890296848E-01
  9.2675585284E+03  4.5611128463E+00  6.2325501394E+00  2.0224447791E-01  1.8782152177E-01  5.1222725175E-01
  9.3645484950E+03  4.6224291589E+00  6.2167831063E+00  2.0894277569E-01  1.9367868528E-01  5.1554073246E-01
  9.4615384615E+03  4.6839721223E+00  6.2013384325E+00  2.1579034174E-01  1.9964554040E-01  5.1884370093E-01
  9.5585284281E+03  4.7457366467E+00  6.1861963856E+00  2.2278891708E-01  2.0572240398E-01  5.2213644693E-01
  9.6555183946E+03  4.8077567378E+00  6.1714309378E+00  2.2994024486E-01  2.1190974493E-01  5.2541916401E-01
  9.7525083612E+03  4.8699823861E+00  6.1569118164E+00  2.3724607036E-01  2.1820761080E-01  5.2869195807E-01
  9.8494983278E+03  4.9324629309E+00  6.1427477670E+00  2.4470814096E-01  2.2461649367E-01  5.3195493886E-01
  9.9464882943E+03  4.9951598435E+00  6.1288402382E+00  2.5232820613E-01  2.3113642389E-01  5.3520822152E-01
  1.0043478261E+04  5.0580870907E+00  6.1152148301E+00  2.6012610228E-01  2.3778277544E-01  5.3845192633E-01
  1.0140468227E+04  5.1212540347E+00  6.1018795702E+00  2.6810926122E-01  2.4456029002E-01  5.4168617498E-01
  1.0237458194E+04  5.1846297437E+00  6.0887654715E+00  2.7625779310E-01  2.5145073900E-01  5.4491102001E-01
  1.0334448161E+04  5.2482697569E+00  6.0759682443E+00  2.8457350435E-01  2.5845453900E-01  5.4812645677E-01
  1.0431438127E+04  5.3121040432E+00  6.0633505660E+00  2.9305820373E-01  2.6557137387E-01  5.5133248576E-01
  1.0528428094E+04  5.3762162973E+00  6.0510510679E+00  3.0171370232E-01  2.7280177380E-01  5.5452911346E-01
  1.0625418060E+04  5.4405262165E+00  6.0389244662E+00  3.1054181350E-01  2.8014528393E-01  5.5771635208E-01
  1.0722408027E+04  5.5051031273E+00  6.0270764620E+00  3.1954435293E-01  2.8760230572E-01  5.6089420698E-01
  1.0819397993E+04  5.5698923484E+00  6.0154128469E+00  3.2872313852E-01  2.9517245719E-01  5.6406262047E-01
  1.0916387960E+04  5.6349396392E+00  6.0039960701E+00  3.3807999043E-01  3.0285594938E-01  5.6722152008E-01
  1.1013377926E+04  5.7002114198E+00  5.9927690836E+00  3.4761673105E-01  3.1065245694E-01  5.7037083986E-01
  1.1110367893E+04  5.7657350887E+00  5.9817645074E+00  3.5733518496E-01  3.1856202259E-01  5.7351051994E-01
  1.1207357860E+04  5.8314922337E+00  5.9709493929E+00  3.6725313605E-01  3.2659696900E-01  5.7664050456E-01
  1.1304347826E+04  5.8974985395E+00  5.9603391340E+00  3.7739939413E-01  3.3477824849E-01  5.7976070589E-01
  1.1401337793E+04  5.9637433607E+00  5.9499126173E+00  3.8773554719E-01  3.4307352847E-01  5.8287100849E-01
  1.1498327759E+04  6.0302388093E+00  5.9396798486E+00  3.9826348463E-01  3.5148264369E-01  5.8597130258E-01
  1.1595317726E+04  6.0969730861E+00  5.9296200301E+00  4.0898509834E-01  3.6000521444E-01  5.8906148460E-01
  1.1692307692E+04  6.1639644176E+00  5.9197489010E+00  4.1990228266E-01  3.6864106147E-01  5.9214145878E-01
  1.1789297659E+04  6.2311893581E+00  5.9100351575E+00  4.3101693440E-01  3.7738965107E-01  5.9521113865E-01
  1.1886287625E+04  6.2986835341E+00  5.9005107215E+00  4.4233095277E-01  3.8625088014E-01  5.9827037758E-01
  1.1983277592E+04  6.3663997373E+00  5.8911236165E+00  4.5384623938E-01  3.9522396056E-01  6.0131902041E-01
  1.2080267559E+04  6.4344039292E+00  5.8819317658E+00  4.6556469827E-01  4.0430897907E-01  6.0435691873E-01
  1.2177257525E+04  6.5026113476E+00  5.8728529672E+00  4.7748823580E-01  4.1350476802E-01  6.0738393080E-01
  1.2274247492E+04  6.5711329251E+00  5.8639803721E+00  4.8961876074E-01  4.2281174409E-01  6.1039992126E-01
  1.2371237458E+04  6.6398308282E+00  5.8551925778E+00  5.0195818415E-01  4.3222820729E-01  6.1340476107E-01
  1.2468227425E+04  6.7088773869E+00  5.8466266502E+00  5.1450841946E-01  4.4175507407E-01  6.1639832724E-01
  1.2565217391E+04  6.7780985714E+00  5.8381394855E+00  5.2729253344E-01  4.5140573635E-01  6.1938050274E-01
  1.2662207358E+04  6.8476449786E+00  5.8298429544E+00  5.4030269168E-01  4.6117352181E-01  6.2235116811E-01
  1.2759197324E+04  6.9174010785E+00  5.8216472091E+00  5.5353074668E-01  4.7104930237E-01  6.2531016136E-01
  1.2856187291E+04  6.9874452484E+00  5.8136042099E+00  5.6697864604E-01  4.8103310259E-01  6.2825731814E-01
  1.2953177258E+04  7.0577481858E+00  5.8056904850E+00  5.8064833979E-01  4.9112395439E-01  6.3119248184E-01
  1.3050167224E+04  7.1282890281E+00  5.7978874518E+00  5.9454178034E-01  5.0132090183E-01  6.3411550249E-01
  1.3147157191E+04  7.1991511451E+00  5.7902468926E+00  6.0866092244E-01  5.1162400642E-01  6.3702623668E-01
  1.3244147157E+04  7.2701890842E+00  5.7826724513E+00  6.2300772322E-01  5.2203102290E-01  6.3992454743E-01
  1.3341137124E+04  7.3416202726E+00  5.7752949927E+00  6.3758414212E-01  5.3254332828E-01  6.4281030399E-01
  1.3438127090E+04  7.4132309760E+00  5.7679819221E+00  6.5239214092E-01  5.4315790451E-01  6.4568338178E-01
  1.3535117057E+04  7.4851648498E+00  5.7608142536E+00  6.6743368370E-01  5.5387535641E-01  6.4854365727E-01
  1.3632107023E+04  7.5573612960E+00  5.7537547322E+00  6.8271073682E-01  5.6469417017E-01  6.5139098394E-01
  1.3729096990E+04  7.6297930531E+00  5.7467849932E+00  6.9825776595E-01  5.7563519110E-01  6.5422521480E-01
  1.3826086957E+04  7.7025884461E+00  5.7399715780E+00  7.1410160123E-01  5.8671524182E-01  6.5704620986E-01
  1.3923076923E+04  7.7755622157E+00  5.7332137857E+00  7.3019025138E-01  5.9789431172E-01  6.5985383574E-01
  1.4020066890E+04  7.8489196400E+00  5.7266139300E+00  7.4652575065E-01  6.0917372316E-01  6.6264796550E-01
  1.4117056856E+04  7.9225071814E+00  5.7200923191E+00  7.6311013585E-01  6.2055070691E-01  6.6542847854E-01
  1.4214046823E+04  7.9963608338E+00  5.7136639853E+00  7.7994544628E-01  6.3202460340E-01  6.6819526046E-01
  1.4311036789E+04  8.0705758952E+00  5.7073719416E+00  7.9703372379E-01  6.4359550904E-01  6.7094820266E-01
  1.4408026756E+04  8.1449714954E+00  5.7011292561E+00  8.1437701273E-01  6.5526012429E-01  6.7368718960E-01
  1.4505016722E+04  8.2197731713E+00  5.6950358386E+00  8.3197735993E-01  6.6702011505E-01  6.7641209749E-01
  1.4602006689E+04  8.2948119085E+00  5.6890138937E+00  8.4983681471E-01  6.7887226234E-01  6.7912280873E-01
  1.4698996656E+04  8.3701024167E+00  5.6830678197E+00  8.6795742881E-01  6.9081555676E-01  6.8181921215E-01
  1.4795986622E+04  8.4457985251E+00  5.6772607144E+00  8.8634125647E-01  7.0285084947E-01  6.8450120289E-01
  1.4892976589E+04  8.5216779109E+00  5.6714974273E+00  9.0499035432E-01  7.1497402381E-01  6.8716868230E-01
  1.4989966555E+04  8.5979333651E+00  5.6658543865E+00  9.2390678142E-01  7.2718642531E-01  6.8982155779E-01
  1.5086956522E+04  8.6744863581E+00  5.6602980703E+00  9.4314249888E-01  7.3951648093E-01  6.9245974247E-01
  1.5183946488E+04  8.7512238366E+00  5.6547827565E+00  9.6265727987E-01  7.5193483507E-01  6.9508314592E-01
  1.5280936455E+04  8.8284569990E+00  5.6494256021E+00  9.8244756453E-01  7.6444110463E-01  6.9769167280E-01
  1.5377926421E+04  8.9058836563E+00  5.6441099896E+00  1.0025154533E+00  7.7702973814E-01  7.0028523354E-01
  1.5474916388E+04  8.9835879659E+00  5.6388660417E+00  1.0228630490E+00  7.8970059522E-01  7.0286374473E-01
  1.5571906355E+04  9.0617169234E+00  5.6337453394E+00  1.0434924572E+00  8.0245456755E-01  7.0542712898E-01
  1.5668896321E+04  9.1400339092E+00  5.6286610396E+00  1.0644057858E+00  8.1528678796E-01  7.0797531477E-01
  1.5765886288E+04  9.2187201291E+00  5.6236754907E+00  1.0856051452E+00  8.2819863615E-01  7.1050823635E-01
  1.5862876254E+04  9.2977549183E+00  5.6187796290E+00  1.1070926484E+00  8.4118848812E-01  7.1302583208E-01
  1.5959866221E+04  9.3769793309E+00  5.6139178343E+00  1.1288704106E+00  8.5425245028E-01  7.1552803497E-01
  1.6056856187E+04  9.4566541641E+00  5.6091757979E+00  1.1509405496E+00  8.6739329086E-01  7.1801477940E-01
  1.6153846154E+04  9.5366121805E+00  5.6044963568E+00  1.1733051858E+00  8.8060697338E-01  7.2048600561E-01
  1.6250836120E+04  9.6167615441E+00  5.5998487966E+00  1.1959664417E+00  8.9389052655E-01  7.2294165959E-01
  1.6347826087E+04  9.6974301656E+00  5.5953360512E+00  1.2189264423E+00  9.0724801776E-01  7.2538169291E-01
  1.6444816054E+04  9.7783292187E+00  5.5908651183E+00  1.2421873152E+00  9.2067321131E-01  7.2780606258E-01
  1.6541806020E+04  9.8594249838E+00  5.5864250838E+00  1.2657511902E+00  9.3416401388E-01  7.3021473190E-01
  1.6638795987E+04  9.9410874377E+00  5.5821269562E+00  1.2896201995E+00  9.4772545509E-01  7.3260766713E-01
  1.6735785953E+04  1.0022945738E+01  5.5778570886E+00  1.3137964776E+00  9.6134962283E-01  7.3498482441E-01
  1.6832775920E+04  1.0105026170E+01  5.5736229536E+00  1.3382821615E+00  9.7503544017E-01  7.3734616372E-01
  1.6929765886E+04  1.0187664377E+01  5.5695207143E+00  1.3630793904E+00  9.8878757179E-01  7.3969165057E-01
  1.7026755853E+04  1.0270500522E+01  5.5654449031E+00  1.3881903059E+00  1.0025980119E+00  7.4202125585E-01
  1.7123745819E+04  1.0353565549E+01  5.5614039796E+00  1.4136170519E+00  1.0164657730E+00  7.4433495568E-01
  1.7220735786E+04  1.0437198357E+01  5.5574909111E+00  1.4393617747E+00  1.0303958156E+00  7.4663273129E-01
  1.7317725753E+04  1.0521031321E+01  5.5536025500E+00  1.4654266226E+00  1.0443797124E+00  7.4891456887E-01
  1.7414715719E+04  1.0605078980E+01  5.5497426488E+00  1.4918137464E+00  1.0584161645E+00  7.5118045945E-01
  1.7511705686E+04  1.0689725332E+01  5.5460124052E+00  1.5185506106E+00  1.0725238809E+00  7.5343039873E-01
  1.7608695652E+04  1.0774574178E+01  5.5423052515E+00  1.5458020164E+00  1.0867736555E+00  7.5566438698E-01
  1.7705685619E+04  1.0859624884E+01  5.5386209186E+00  1.5733885558E+00  1.1010724085E+00  7.5788242892E-01
  1.7802675585E+04  1.0945276859E+01  5.5350611351E+00  1.6013124771E+00  1.1154267951E+00  7.6008453353E-01
  1.7899665552E+04  1.1031158165E+01  5.5315291947E+00  1.6295760314E+00  1.1298277181E+00  7.6227072347E-01
  1.7996655518E+04  1.1117243774E+01  5.5280185761E+00  1.6581814722E+00  1.1442730381E+00  7.6444102022E-01
  1.8093645485E+04  1.1203876695E+01  5.5246139345E+00  1.6871310557E+00  1.1587685245E+00  7.6659542619E-01
  1.8190635452E+04  1.1290805578E+01  5.5212514851E+00  1.7164270408E+00  1.1733073604E+00  7.6873394811E-01
  1.8287625418E+04  1.1377941285E+01  5.5179089464E+00  1.7460716888E+00  1.1878860260E+00  7.7085659715E-01
  1.8384615385E+04  1.1465544139E+01  5.5146485980E+00  1.7760672637E+00  1.2025087275E+00  7.7296338880E-01
  1.8481605351E+04  1.1553535828E+01  5.5114502253E+00  1.8064160321E+00  1.2171722997E+00  7.7505433824E-01
  1.8578595318E+04  1.1641736936E+01  5.5082704340E+00  1.8371202630E+00  1.2318711637E+00  7.7712944012E-01
  1.8675585284E+04  1.1730297092E+01  5.5051439231E+00  1.8681822281E+00  1.2466071804E+00  7.7918873749E-01
  1.8772575251E+04  1.1819366938E+01  5.5021045008E+00  1.8996065149E+00  1.2613834350E+00  7.8123228610E-01
  1.8869565217E+04  1.1908648874E+01  5.4990824066E+00  1.9313943514E+00  1.2761910199E+00  7.8326014423E-01
  1.8966555184E+04  1.1998152029E+01  5.4960796442E+00  1.9635468585E+00  1.2910280412E+00  7.8527237258E-01
  1.9063545151E+04  1.2088315499E+01  5.4931943142E+00  1.9960663193E+00  1.3059035909E+00  7.8726903437E-01
  1.9160535117E+04  1.2178693806E+01  5.4903251300E+00  2.0289550197E+00  1.3208055171E+00  7.8925019100E-01
  1.9257525084E+04  1.2269286370E+01  5.4874719201E+00  2.0622152477E+00  1.3357322288E+00  7.9121587445E-01
  1.9354515050E+04  1.2360396601E+01  5.4847005237E+00  2.0958492943E+00  1.3506897750E+00  7.9316611233E-01
  1.9451505017E+04  1.2451886928E+01  5.4819797081E+00  2.1298594524E+00  1.3656733626E+00  7.9510093622E-01
  1.9548494983E+04  1.2543594343E+01  5.4792737652E+00  2.1642480177E+00  1.3806773931E+00  7.9702038148E-01
  1.9645484950E+04  1.2635623764E+01  5.4766047869E+00  2.1990172883E+00  1.3957030398E+00  7.9892448718E-01
  1.9742474916E+04  1.2728241861E+01  5.4740280285E+00  2.2341695648E+00  1.4107558400E+00  8.0081329589E-01
  1.9839464883E+04  1.2821079954E+01  5.4714651017E+00  2.2697071500E+00  1.4258248271E+00  8.0268685360E-01
  1.9936454849E+04  1.2914137485E+01  5.4689158650E+00  2.3056323494E+00  1.4409084715E+00  8.0454520958E-01
  2.0033444816E+04  1.3007770054E+01  5.4664526897E+00  2.3419643360E+00  1.4560213791E+00  8.0638841623E-01
  2.0130434783E+04  1.3101754023E+01  5.4640287103E+00  2.3787214809E+00  1.4711622008E+00  8.0821652899E-01
  2.0227424749E+04  1.3195960415E+01  5.4616174489E+00  2.4158744955E+00  1.4863136575E+00  8.1002960433E-01
  2.0324414716E+04  1.3290479618E+01  5.4592369135E+00  2.4534257112E+00  1.5014767898E+00  8.1182766879E-01
  2.0421404682E+04  1.3385620699E+01  5.4569478537E+00  2.4913774622E+00  1.5166589021E+00  8.1361077444E-01
  2.0518394649E+04  1.3480987218E+01  5.4546705930E+00  2.5297320846E+00  1.5318476133E+00  8.1537898928E-01
  2.0615384615E+04  1.3576578640E+01  5.4524050151E+00  2.5684919173E+00  1.5470414686E+00  8.1713238368E-01
  2.0712374582E+04  1.3672678930E+01  5.4502063149E+00  2.6076593015E+00  1.5622472844E+00  8.1887103026E-01
  2.0809364548E+04  1.3769215343E+01  5.4480592170E+00  2.6472365809E+00  1.5774617493E+00  8.2059500381E-01
  2.0906354515E+04  1.3865979700E+01  5.4459229431E+00  2.6872261015E+00  1.5926774778E+00  8.2230438114E-01
  2.1003344482E+04  1.3962971478E+01  5.4437973890E+00  2.7276302117E+00  1.6078930682E+00  8.2399924101E-01
  2.1100334448E+04  1.4060640655E+01  5.4417678663E+00  2.7684512623E+00  1.6231207348E+00  8.2567966402E-01
  2.1197324415E+04  1.4158587594E+01  5.4397572861E+00  2.8096916065E+00  1.6383473090E+00  8.2734573250E-01
  2.1294314381E+04  1.4256765020E+01  5.4377566222E+00  2.8513535998E+00  1.6535700331E+00  8.2899753044E-01
  2.1391304348E+04  1.4355257793E+01  5.4357816884E+00  2.8934396002E+00  1.6687902155E+00  8.3063514455E-01
  2.1488294314E+04  1.4454396822E+01  5.4338933586E+00  2.9359519678E+00  1.6840169815E+00  8.3225864571E-01
  2.1585284281E+04  1.4553769422E+01  5.4320141845E+00  2.9788930653E+00  1.6992363185E+00  8.3386809751E-01
  2.1682274247E+04  1.4653375090E+01  5.4301440807E+00  3.0222652576E+00  1.7144469278E+00  8.3546356610E-01
  2.1779264214E+04  1.4753400652E+01  5.4283170315E+00  3.0660709118E+00  1.7296535593E+00  8.3704512009E-01
  2.1876254181E+04  1.4853977811E+01  5.4265561012E+00  3.1103123976E+00  1.7448593826E+00  8.3861283045E-01
  2.1973244147E+04  1.4954791144E+01  5.4248035285E+00  3.1549920868E+00  1.7600530848E+00  8.4016677032E-01
  2.2070234114E+04  1.5055840162E+01  5.4230592368E+00  3.2001123535E+00  1.7752334296E+00  8.4170701500E-01
  2.2167224080E+04  1.5157382068E+01  5.4213689119E+00  3.2456755742E+00  1.7904077833E+00  8.4323364175E-01
  2.2264214047E+04  1.5259412325E+01  5.4197308069E+00  3.2916841276E+00  1.8055750010E+00  8.4474672975E-01
  2.2361204013E+04  1.5361681398E+01  5.4181003143E+00  3.3381418860E+00  1.8207261036E+00  8.4624635986E-01
  2.2458193980E+04  1.5464188806E+01  5.4164773658E+00  3.3853386703E+00  1.8359444476E+00  8.4773261007E-01
  2.2555183946E+04  1.5567229118E+01  5.4149130747E+00  3.4329948299E+00  1.8511541235E+00  8.4920555304E-01
  2.2652173913E+04  1.5670727373E+01  5.4133934870E+00  3.4811128284E+00  1.8663516085E+00  8.5066526290E-01
  2.2749163880E+04  1.5774467119E+01  5.4118808156E+00  3.5296951324E+00  1.8815283806E+00  8.5211181579E-01
  2.2846153846E+04  1.5878447887E+01  5.4103749996E+00  3.5787442106E+00  1.8966833131E+00  8.5354528977E-01
  2.2943143813E+04  1.5982967166E+01  5.4089264878E+00  3.6282625345E+00  1.9118258699E+00  8.5496576470E-01
  2.3040133779E+04  1.6087948243E+01  5.4075213561E+00  3.6782525779E+00  1.9269524494E+00  8.5637332212E-01
  2.3137123746E+04  1.6193173520E+01  5.4061224899E+00  3.7287168174E+00  1.9420543237E+00  8.5776804517E-01
  2.3234113712E+04  1.6298642539E+01  5.4047298350E+00  3.7796577316E+00  1.9571304350E+00  8.5915001848E-01
  2.3331103679E+04  1.6404619836E+01  5.4033872531E+00  3.8310778020E+00  1.9721894229E+00  8.6051932808E-01
  2.3428093645E+04  1.6511098478E+01  5.4020927451E+00  3.8829795124E+00  1.9872302104E+00  8.6187605895E-01
  2.3525083612E+04  1.6617824064E+01  5.4008038934E+00  3.9353653490E+00  2.0022425739E+00  8.6322029015E-01
  2.3622073579E+04  1.6724796145E+01  5.3995206501E+00  3.9882378006E+00  2.0172255244E+00  8.6455210098E-01
  2.3719063545E+04  1.6832208989E+01  5.3982745259E+00  4.0415993584E+00  2.0321854011E+00  8.6587157236E-01
  2.3816053512E+04  1.6940199856E+01  5.3970870215E+00  4.0954525159E+00  2.0471265808E+00  8.6717878670E-01
  2.3913043478E+04  1.7048440442E+01  5.3959046029E+00  4.1497997692E+00  2.0620358909E+00  8.6847382783E-01
  2.4010033445E+04  1.7156930309E+01  5.3947272279E+00  4.2046436168E+00  2.0769124115E+00  8.6975678092E-01
  2.4107023411E+04  1.7265754700E+01  5.3935684403E+00  4.2599865595E+00  2.0917585409E+00  8.7102773231E-01
  2.4204013378E+04  1.7375272361E+01  5.3924845166E+00  4.3158311006E+00  2.1065873636E+00  8.7228676953E-01
  2.4301003344E+04  1.7485042550E+01  5.3914051443E+00  4.3721797457E+00  2.1213811425E+00  8.7353398110E-01
  2.4397993311E+04  1.7595064837E+01  5.3903302861E+00  4.4290350030E+00  2.1361390260E+00  8.7476945332E-01
  2.4494983278E+04  1.7705338797E+01  5.3892599054E+00  4.4863993828E+00  2.1508601796E+00  8.7599326769E-01
  2.4591973244E+04  1.7816334164E+01  5.3882664594E+00  4.5442753980E+00  2.1655624419E+00  8.7720550631E-01
  2.4688963211E+04  1.7927648462E+01  5.3872869274E+00  4.6026655638E+00  2.1802292629E+00  8.7840625256E-01
  2.4785953177E+04  1.8039217709E+01  5.3863114130E+00  4.6615723977E+00  2.1948573491E+00  8.7959559094E-01
  2.4882943144E+04  1.8151041488E+01  5.3853398841E+00  4.7209984196E+00  2.2094459329E+00  8.8077360702E-01
  2.4979933110E+04  1.8263401199E+01  5.3844148932E+00  4.7809461518E+00  2.2240057078E+00  8.8194038736E-01
  2.5076923077E+04  1.8376273252E+01  5.3835321236E+00  4.8415310870E+00  2.2385593078E+00  8.8309601939E-01
  2.5173913043E+04  1.8489403127E+01  5.3826529056E+00  4.9026749950E+00  2.2530778134E+00  8.8424059137E-01
  2.5270903010E+04  1.8602790416E+01  5.3817772114E+00  4.9643512798E+00  2.2675542077E+00  8.8537419720E-01
  2.5367892977E+04  1.8716485020E+01  5.3809125110E+00  5.0265625040E+00  2.2819898954E+00  8.8649693007E-01
  2.5464882943E+04  1.8830923229E+01  5.3801233183E+00  5.0893112323E+00  2.2964025080E+00  8.8760886758E-01
  2.5561872910E+04  1.8945622115E+01  5.3793372410E+00  5.1526000321E+00  2.3107713685E+00  8.8871008803E-01
  2.5658862876E+04  1.9060581280E+01  5.3785542548E+00  5.2164314731E+00  2.3250958332E+00  8.8980067093E-01
  2.5755852843E+04  1.9175800328E+01  5.3777743360E+00  5.2808081272E+00  2.3393752742E+00  8.9088069686E-01
  2.5852842809E+04  1.9291591506E+01  5.3770432787E+00  5.3457325690E+00  2.3536225119E+00  8.9195024737E-01
  2.5949832776E+04  1.9407865301E+01  5.3763472386E+00  5.4112073754E+00  2.3678332694E+00  8.9300940493E-01
  2.6046822742E+04  1.9524402202E+01  5.3756538848E+00  5.4772351255E+00  2.3819975893E+00  8.9405825287E-01
  2.6143812709E+04  1.9641201821E+01  5.3749631969E+00  5.5438184009E+00  2.3961149055E+00  8.9509687521E-01
  2.6240802676E+04  1.9758264888E+01  5.3742753169E+00  5.6109597857E+00  2.4101847162E+00  8.9612535670E-01
  2.6337792642E+04  1.9876119014E+01  5.3736663640E+00  5.6786618662E+00  2.4242298374E+00  8.9714378267E-01
  2.6434782609E+04  1.9994239034E+01  5.3730597182E+00  5.7469272309E+00  2.4382267132E+00  8.9815223898E-01
  2.6531772575E+04  2.0112624569E+01  5.3724553622E+00  5.8157584710E+00  2.4521748365E+00  8.9915081196E-01
  2.6628762542E+04  2.0231275243E+01  5.3718532790E+00  5.8851581797E+00  2.4660737148E+00  9.0013958834E-01
  2.6725752508E+04  2.0350368395E+01  5.3712788416E+00  5.9551289528E+00  2.4799309219E+00  9.0111865520E-01
  2.6822742475E+04  2.0470076450E+01  5.3707561211E+00  6.0256733883E+00  2.4937539325E+00  9.0208809988E-01
  2.6919732441E+04  2.0590052777E+01  5.3702353380E+00  6.0967940865E+00  2.5075266631E+00  9.0304800997E-01
  2.7016722408E+04  2.0710297009E+01  5.3697164781E+00  6.1684936501E+00  2.5212486773E+00  9.0399847136E-01
  2.7113712375E+04  2.0830808778E+01  5.3691995274E+00  6.2407746839E+00  2.5349195528E+00  9.0493956099E-01
  2.7210702341E+04  2.0951898058E+01  5.3687281640E+00  6.3136397953E+00  2.5485533184E+00  9.0587135389E-01
  2.7307692308E+04  2.1073469588E+01  5.3682883259E+00  6.3870915937E+00  2.5621452849E+00  9.0679392585E-01
  2.7404682274E+04  2.1195311748E+01  5.3678500830E+00  6.4611361233E+00  2.5756858173E+00  9.0770735336E-01
  2.7501672241E+04  2.1317424179E+01  5.3674134240E+00  6.5357872697E+00  2.5891762942E+00  9.0861171357E-01
  2.7598662207E+04  2.1439806524E+01  5.3669783376E+00  6.6110333193E+00  2.6026140522E+00  9.0950708418E-01
  2.7695652174E+04  2.1562857202E+01  5.3666001807E+00  6.6868768947E+00  2.6160177737E+00  9.1039354340E-01
  2.7792642140E+04  2.1686301197E+01  5.3662400701E+00  6.7633206203E+00  2.6293741454E+00  9.1127116986E-01
  2.7889632107E+04  2.1810018154E+01  5.3658812381E+00  6.8403671231E+00  2.6426771377E+00  9.1214004257E-01
  2.7986622074E+04  2.1934007725E+01  5.3655236757E+00  6.9180190324E+00  2.6559264428E+00  9.1300024088E-01
  2.8083612040E+04  2.2058269563E+01  5.3651673740E+00  6.9962789794E+00  2.6691217654E+00  9.1385184436E-01
  2.8180602007E+04  2.2183246268E+01  5.3648730228E+00  7.0751495980E+00  2.6822844716E+00  9.1469493283E-01
  2.8277591973E+04  2.2308571158E+01  5.3645896656E+00  7.1546335240E+00  2.6953965025E+00  9.1552958622E-01
  2.8374581940E+04  2.2434171318E+01  5.3643072935E+00  7.2347333957E+00  2.7084540587E+00  9.1635588460E-01
  2.8471571906E+04  2.2560046408E+01  5.3640258998E+00  7.3154518534E+00  2.7214568906E+00  9.1717390807E-01
  2.8568561873E+04  2.2686196092E+01  5.3637454777E+00  7.3967915397E+00  2.7344047600E+00  9.1798373677E-01
  2.8665551839E+04  2.2813062943E+01  5.3635259679E+00  7.4787550995E+00  2.7473195924E+00  9.1878544851E-01
  2.8762541806E+04  2.2940276599E+01  5.3633165570E+00  7.5613451800E+00  2.7601827715E+00  9.1957911404E-01
  2.8859531773E+04  2.3067767805E+01  5.3631078592E+00  7.6445644303E+00  2.7729906510E+00  9.2036480318E-01
  2.8956521739E+04  2.3195536232E+01  5.3628998697E+00  7.7284155019E+00  2.7857430353E+00  9.2114258624E-01
  2.9053511706E+04  2.3323581549E+01  5.3626925837E+00  7.8129010486E+00  2.7984397389E+00  9.2191253390E-01
  2.9150501672E+04  2.3452302298E+01  5.3625393587E+00  7.8980237263E+00  2.8111009819E+00  9.2267471721E-01
  2.9247491639E+04  2.3581412030E+01  5.3624012419E+00  7.9837861929E+00  2.8237120611E+00  9.2342920750E-01
  2.9344481605E+04  2.3710801565E+01  5.3622635859E+00  8.0701911087E+00  2.8362672648E+00  9.2417607631E-01
  2.9441471572E+04  2.3840470580E+01  5.3621263877E+00  8.1572411362E+00  2.8487664467E+00  9.2491539540E-01
  2.9538461538E+04  2.3970418755E+01  5.3619896441E+00  8.2449389400E+00  2.8612094700E+00  9.2564723664E-01
  2.9635451505E+04  2.4100956920E+01  5.3618945292E+00  8.3332871868E+00  2.8736124581E+00  9.2637167203E-01
  2.9732441472E+04  2.4231969480E+01  5.3618251978E+00  8.4222885455E+00  2.8859693460E+00  9.2708877357E-01
  2.9829431438E+04  2.4363264062E+01  5.3617560931E+00  8.5119456873E+00  2.8982700101E+00  9.2779861331E-01
  2.9926421405E+04  2.4494840356E+01  5.3616872137E+00  8.6022612853E+00  2.9105143489E+00  9.2850126324E-01
  3.0023411371E+04  2.4626698048E+01  5.3616185579E+00  8.6933629481E+00  2.9227163917E+00  9.2919679529E-01
  3.0120401338E+04  2.4759016955E+01  5.3615737162E+00  8.7855268061E+00  2.9349156373E+00  9.2988528128E-01
  3.0217391304E+04  2.4891938234E+01  5.3615707389E+00  8.8783664562E+00  2.9470750517E+00  9.3056679078E-01
  3.0314381271E+04  2.5025143723E+01  5.3615677712E+00  8.9718846576E+00  2.9591776484E+00  9.3124138778E-01
  3.0411371237E+04  2.5158633119E+01  5.3615648129E+00  9.0660841720E+00  2.9712233639E+00  9.3190913565E-01
  3.0508361204E+04  2.5292406117E+01  5.3615618640E+00  9.1609677632E+00  2.9832121433E+00  9.3257009799E-01
  3.0605351171E+04  2.5426469147E+01  5.3615597970E+00  9.2565381974E+00  2.9951443054E+00  9.3322433864E-01
  3.0702341137E+04  2.5561303723E+01  5.3616207336E+00  9.3527982431E+00  3.0070460257E+00  9.3387192156E-01
  3.0799331104E+04  2.5696424656E+01  5.3616814787E+00  9.4497506713E+00  3.0188909602E+00  9.3451291085E-01
  3.0896321070E+04  2.5831831649E+01  5.3617420335E+00  9.5473982551E+00  3.0306790834E+00  9.3514737067E-01
  3.0993311037E+04  2.5967524408E+01  5.3618023991E+00  9.6457437700E+00  3.0424103775E+00  9.3577536523E-01
  3.1090301003E+04  2.6103502638E+01  5.3618625768E+00  9.7447899939E+00  3.0540848322E+00  9.3639695871E-01
  3.1187290970E+04  2.6240046903E+01  5.3619584487E+00  9.8445397068E+00  3.0657180077E+00  9.3701221529E-01
