#[MATERIAL DEFINITION FOR MC-GPU: interaction mean free path and sampling data from PENELOPE 2006]
#[MATERIAL NAME]
# matmat                                                        
#[NOMINAL DENSITY (g/cm^3)]
#   1.00000000
#[NUMBER OF DATA VALUES]
#   1495
#[MEAN FREE PATHS (cm) (ie, average distance between interactions)]
#[Energy (eV)     | Rayleigh        | Compton         | Photoelectric   | TOTAL (+pair prod) (cm) | Rayleigh: max cumul prob F^2]
  5.0000000000E+03  8.3015003771E+00  5.1031814282E+00  1.4364159525E+00  9.8756310484E-01  5.7939848101E-01
  5.0969899666E+03  8.4790521370E+00  5.0513823582E+00  1.5307238928E+00  1.0317904933E+00  5.8862251155E-01
  5.1939799331E+03  8.6584488977E+00  5.0025477267E+00  1.6292692772E+00  1.0762358621E+00  5.9770711436E-01
  5.2909698997E+03  8.8397279644E+00  4.9564557089E+00  1.7321580153E+00  1.1208283662E+00  6.0665210926E-01
  5.3879598662E+03  9.0229251027E+00  4.9129033550E+00  1.8394966307E+00  1.1654992453E+00  6.1545749291E-01
  5.4849498328E+03  9.2080745082E+00  4.8717047170E+00  1.9513922528E+00  1.2101820946E+00  6.2412309509E-01
  5.5819397993E+03  9.3952087716E+00  4.8326891987E+00  2.0679526097E+00  1.2548130954E+00  6.3264881453E-01
  5.6789297659E+03  9.5843588414E+00  4.7957000955E+00  2.1892860205E+00  1.2993312055E+00  6.4103466408E-01
  5.7759197324E+03  9.7755539831E+00  4.7605933021E+00  2.3155013885E+00  1.3436783109E+00  6.4928055958E-01
  5.8729096990E+03  9.9688217361E+00  4.7272361654E+00  2.4467081939E+00  1.3877993423E+00  6.5738658692E-01
  5.9698996656E+03  1.0164187856E+01  4.6955064794E+00  2.5830164873E+00  1.4316423587E+00  6.6535284287E-01
  6.0668896321E+03  1.0361675684E+01  4.6652924295E+00  2.7248017389E+00  1.4752363128E+00  6.7317947324E-01
  6.1638795987E+03  1.0561305067E+01  4.6364931458E+00  2.8720590596E+00  1.5184927219E+00  6.8086676507E-01
  6.2608695652E+03  1.0763092420E+01  4.6090175340E+00  3.0247877672E+00  1.5613343990E+00  6.8841499517E-01
  6.3578595318E+03  1.0967052175E+01  4.5827813434E+00  3.1831016472E+00  1.6037224492E+00  6.9582460066E-01
  6.4548494983E+03  1.1173308042E+01  4.5577506139E+00  3.3471150477E+00  1.6456293850E+00  7.0309604513E-01
  6.5518394649E+03  1.1381908889E+01  4.5338593788E+00  3.5169428729E+00  1.6870256268E+00  7.1022990492E-01
  6.6488294314E+03  1.1592756041E+01  4.5109930466E+00  3.6927005781E+00  1.7278738289E+00  7.1722683779E-01
  6.7458193980E+03  1.1805858143E+01  4.4890880345E+00  3.8745041634E+00  1.7681475891E+00  7.2408757305E-01
  6.8428093645E+03  1.2021221792E+01  4.4680852562E+00  4.0624701688E+00  1.8078233521E+00  7.3081299573E-01
  6.9397993311E+03  1.2238851462E+01  4.4479298010E+00  4.2567156687E+00  1.8468802965E+00  7.3740391532E-01
  7.0367892977E+03  1.2458763864E+01  4.4285747855E+00  4.4578176457E+00  1.8853834740E+00  7.4386128075E-01
  7.1337792642E+03  1.2681398152E+01  4.4100937198E+00  4.6662525304E+00  1.9233989388E+00  7.5018622410E-01
  7.2307692308E+03  1.2906337575E+01  4.3923199307E+00  4.8814197634E+00  1.9607463851E+00  7.5637995927E-01
  7.3277591973E+03  1.3133572906E+01  4.3752135409E+00  5.1034421002E+00  1.9974145514E+00  7.6244359860E-01
  7.4247491639E+03  1.3363093268E+01  4.3587372753E+00  5.3324428539E+00  2.0333943237E+00  7.6837837750E-01
  7.5217391304E+03  1.3595157941E+01  4.3429204990E+00  5.5685458906E+00  2.0686994664E+00  7.7418569249E-01
  7.6187290970E+03  1.3829863807E+01  4.3277472198E+00  5.8118756244E+00  2.1033330264E+00  7.7986700936E-01
  7.7157190635E+03  1.4066863106E+01  4.3131042338E+00  6.0625570127E+00  2.1372657664E+00  7.8542370847E-01
  7.8127090301E+03  1.4306139504E+01  4.2989626824E+00  6.3207155519E+00  2.1704956948E+00  7.9085727751E-01
  7.9096989967E+03  1.4548125932E+01  4.2853867302E+00  6.5864772722E+00  2.2030567442E+00  7.9616933903E-01
  8.0066889632E+03  1.4792711684E+01  4.2723215329E+00  6.8599918478E+00  2.2349444902E+00  8.0136153010E-01
  8.1036789298E+03  1.5039567666E+01  4.2596789496E+00  7.1416877475E+00  2.2661673704E+00  8.0643543314E-01
  8.2006688963E+03  1.5288816432E+01  4.2474636189E+00  7.4313919298E+00  2.2967059078E+00  8.1139273924E-01
  8.2976588629E+03  1.5541047489E+01  4.2357623952E+00  7.7292332923E+00  2.3266111969E+00  8.1623523541E-01
  8.3946488294E+03  1.5795517698E+01  4.2244190418E+00  8.0353412550E+00  2.3558332441E+00  8.2096465181E-01
  8.4916387960E+03  1.6052232170E+01  4.2134206550E+00  8.3498457564E+00  2.3843803442E+00  8.2558272977E-01
  8.5886287625E+03  1.6312108277E+01  4.2029052493E+00  8.6728772494E+00  2.4123310719E+00  8.3009130906E-01
  8.6856187291E+03  1.6574184354E+01  4.1926926457E+00  9.0045666975E+00  2.4396208241E+00  8.3449224485E-01
  8.7826086957E+03  1.6838553234E+01  4.1827866665E+00  9.3450455706E+00  2.4662666193E+00  8.3878732839E-01
  8.8795986622E+03  1.7106056802E+01  4.1733035510E+00  9.6944458421E+00  2.4923422962E+00  8.4297841993E-01
  8.9765886288E+03  1.7375715024E+01  4.1640761766E+00  1.0052899984E+01  2.5177838796E+00  8.4706743036E-01
  9.0735785953E+03  1.7647920453E+01  4.1551531225E+00  1.0420566360E+01  2.5426336631E+00  8.5105619882E-01
  9.1705685619E+03  1.7923011971E+01  4.1465699638E+00  1.0797562869E+01  2.5669270676E+00  8.5494658862E-01
  9.2675585284E+03  1.8200201747E+01  4.1382026911E+00  1.1184015674E+01  2.5906160543E+00  8.5874051861E-01
  9.3645484950E+03  1.8480390258E+01  4.1301677522E+00  1.1580059264E+01  2.6137799900E+00  8.6243985292E-01
  9.4615384615E+03  1.8762986379E+01  4.1223717850E+00  1.1985828613E+01  2.6363863160E+00  8.6604644402E-01
  9.5585284281E+03  1.9047904416E+01  4.1147951872E+00  1.2401459171E+01  2.6584407590E+00  8.6956219320E-01
  9.6555183946E+03  1.9335903373E+01  4.1075281877E+00  1.2827086869E+01  2.6800116456E+00  8.7298895837E-01
  9.7525083612E+03  1.9625905050E+01  4.1004215878E+00  1.3262848105E+01  2.7010308908E+00  8.7632856822E-01
  9.8494983278E+03  1.9918999423E+01  4.0936063130E+00  1.3708879751E+01  2.7215910680E+00  8.7958288994E-01
  9.9464882943E+03  2.0214362196E+01  4.0869698762E+00  1.4165319143E+01  2.7416430798E+00  8.8275374859E-01
  1.0043478261E+04  2.0512316485E+01  4.0805453804E+00  1.4633592495E+01  2.7612684727E+00  8.8584293627E-01
  1.0140468227E+04  2.0813026135E+01  4.0743446780E+00  1.5114251133E+01  2.7804980401E+00  8.8885227318E-01
  1.0237458194E+04  2.1115883687E+01  4.0682894270E+00  1.5605895575E+01  2.7992416123E+00  8.9178353122E-01
  1.0334448161E+04  2.1421914319E+01  4.0624930034E+00  1.6108669248E+01  2.8175854600E+00  8.9463845506E-01
  1.0431438127E+04  2.1729804541E+01  4.0567978199E+00  1.6622716077E+01  2.8354458699E+00  8.9741880625E-01
  1.0528428094E+04  2.2041030439E+01  4.0513660272E+00  1.7148180472E+01  2.8529410361E+00  9.0012628940E-01
  1.0625418060E+04  2.2354167644E+01  4.0460318168E+00  1.7685207335E+01  2.8699793528E+00  9.0276259381E-01
  1.0722408027E+04  2.2670373205E+01  4.0409182932E+00  1.8233942052E+01  2.8866550885E+00  9.0532943821E-01
  1.0819397993E+04  2.2988723049E+01  4.0359192230E+00  1.8794530488E+01  2.9029127833E+00  9.0782844350E-01
  1.0916387960E+04  2.3309936953E+01  4.0311074204E+00  1.9367118992E+01  2.9188144521E+00  9.1026118194E-01
  1.1013377926E+04  2.3633463223E+01  4.0264194558E+00  1.9951854385E+01  2.9343312152E+00  9.1262924720E-01
  1.1110367893E+04  2.3959711844E+01  4.0218938592E+00  2.0548883965E+01  2.9495022640E+00  9.1493424602E-01
  1.1207357860E+04  2.4288376664E+01  4.0174946287E+00  2.1158355498E+01  2.9643159518E+00  9.1717778222E-01
  1.1304347826E+04  2.4619684074E+01  4.0132406723E+00  2.1780417221E+01  2.9787978422E+00  9.1936135443E-01
  1.1401337793E+04  2.4953448115E+01  4.0091093453E+00  2.2415217837E+01  2.9929444598E+00  9.2148640151E-01
  1.1498327759E+04  2.5289836095E+01  4.0051133361E+00  2.3062906510E+01  3.0067766360E+00  9.2355437565E-01
  1.1595317726E+04  2.5628658791E+01  4.0012305122E+00  2.3723632865E+01  3.0202903480E+00  9.2556673672E-01
  1.1692307692E+04  2.5970146834E+01  3.9974795606E+00  2.4397546989E+01  3.0335102349E+00  9.2752494190E-01
  1.1789297659E+04  2.6313986612E+01  3.9938271694E+00  2.5084799420E+01  3.0464233984E+00  9.2943036709E-01
  1.1886287625E+04  2.6660591933E+01  3.9903091276E+00  2.5785541152E+01  3.0590664229E+00  9.3128432193E-01
  1.1983277592E+04  2.7009406442E+01  3.9868703370E+00  2.6499923631E+01  3.0714096368E+00  9.3308812202E-01
  1.2080267559E+04  2.7361143991E+01  3.9835737421E+00  2.7228098748E+01  3.0835092678E+00  9.3484308574E-01
  1.2177257525E+04  2.7714890345E+01  3.9803328757E+00  2.7970218844E+01  3.0953114346E+00  9.3655052342E-01
  1.2274247492E+04  2.8071772816E+01  3.9772468980E+00  2.8726436703E+01  3.1068992366E+00  9.3821166764E-01
  1.2371237458E+04  2.8430407835E+01  3.9741893592E+00  2.9496905551E+01  3.1181876330E+00  9.3982770183E-01
  1.2468227425E+04  2.8792445714E+01  3.9713037597E+00  3.0281779051E+01  3.1292933324E+00  9.4139981184E-01
  1.2565217391E+04  2.9156234852E+01  3.9684425914E+00  3.1081628679E+01  3.1401181989E+00  9.4292918208E-01
  1.2662207358E+04  2.9523128822E+01  3.9657211760E+00  3.1896418056E+01  3.1507556891E+00  9.4441697736E-01
  1.2759197324E+04  2.9892101464E+01  3.9630487886E+00  3.2726103870E+01  3.1611428865E+00  9.4586428483E-01
  1.2856187291E+04  3.0263788331E+01  3.9604776711E+00  3.3570842115E+01  3.1713277477E+00  9.4727216924E-01
  1.2953177258E+04  3.0637953260E+01  3.9579853790E+00  3.4430789218E+01  3.1813009085E+00  9.4864169452E-01
  1.3050167224E+04  3.1014390360E+01  3.9555532763E+00  3.5306102038E+01  3.1910553714E+00  9.4997391903E-01
  1.3147157191E+04  3.1393754440E+01  3.9532328491E+00  3.6196937861E+01  3.2006386782E+00  9.5126985777E-01
  1.3244147157E+04  3.1774919273E+01  3.9509308237E+00  3.7103454405E+01  3.2099849204E+00  9.5253047050E-01
  1.3341137124E+04  3.2159467702E+01  3.9487728630E+00  3.8025809808E+01  3.2191998100E+00  9.5375671186E-01
  1.3438127090E+04  3.2545853866E+01  3.9466332646E+00  3.8964162636E+01  3.2281910242E+00  9.5494953217E-01
  1.3535117057E+04  3.2935054500E+01  3.9445881885E+00  3.9918671874E+01  3.2370252761E+00  9.5610986306E-01
  1.3632107023E+04  3.3326664380E+01  3.9426036935E+00  4.0889496927E+01  3.2456820259E+00  9.5723857781E-01
  1.3729096990E+04  3.3720475318E+01  3.9406626297E+00  4.1876797618E+01  3.2541535632E+00  9.5833653266E-01
  1.3826086957E+04  3.4117309314E+01  3.9388262633E+00  4.2880734185E+01  3.2624951015E+00  9.5940457974E-01
  1.3923076923E+04  3.4515990323E+01  3.9370035809E+00  4.3901467281E+01  3.2706391281E+00  9.6044356067E-01
  1.4020066890E+04  3.4917746514E+01  3.9352860798E+00  4.4939157971E+01  3.2786651690E+00  9.6145427096E-01
  1.4117056856E+04  3.5321666143E+01  3.9336036004E+00  4.5993967728E+01  3.2865219005E+00  9.6243747890E-01
  1.4214046823E+04  3.5727933468E+01  3.9319691468E+00  4.7066058436E+01  3.2942250312E+00  9.6339394837E-01
  1.4311036789E+04  3.6137087741E+01  3.9304206165E+00  4.8155592384E+01  3.3018107551E+00  9.6432443513E-01
  1.4408026756E+04  3.6548116530E+01  3.9288831494E+00  4.9262732267E+01  3.3092226628E+00  9.6522965889E-01
  1.4505016722E+04  3.6962210638E+01  3.9274417605E+00  5.0387641182E+01  3.3165354582E+00  9.6611030955E-01
  1.4602006689E+04  3.7378483381E+01  3.9260311809E+00  5.1530482628E+01  3.3237001302E+00  9.6696707182E-01
  1.4698996656E+04  3.7796990639E+01  3.9246549473E+00  5.2691420504E+01  3.3307239955E+00  9.6780062295E-01
  1.4795986622E+04  3.8218499069E+01  3.9233656194E+00  5.3870619106E+01  3.3376551749E+00  9.6861160944E-01
  1.4892976589E+04  3.8641907993E+01  3.9220851351E+00  5.5068243127E+01  3.3444330129E+00  9.6940065053E-01
  1.4989966555E+04  3.9068118831E+01  3.9208753789E+00  5.6284457654E+01  3.3511132370E+00  9.7016836008E-01
  1.5086956522E+04  3.9496768712E+01  3.9197098493E+00  5.7525051651E+01  3.3576969861E+00  9.7091535011E-01
  1.5183946488E+04  3.9927329595E+01  3.9185521319E+00  5.8785437502E+01  3.3641397027E+00  9.7164221422E-01
  1.5280936455E+04  4.0361188852E+01  3.9174946391E+00  6.0065148670E+01  3.3705208159E+00  9.7234948974E-01
  1.5377926421E+04  4.0797004020E+01  3.9164461800E+00  6.1364355980E+01  3.3767672061E+00  9.7303770829E-01
  1.5474916388E+04  4.1235132696E+01  3.9154301367E+00  6.2683230669E+01  3.3829021409E+00  9.7370739825E-01
  1.5571906355E+04  4.1676205664E+01  3.9144864774E+00  6.4021944390E+01  3.3889631510E+00  9.7435908310E-01
  1.5668896321E+04  4.2119213907E+01  3.9135489027E+00  6.5380669207E+01  3.3948972430E+00  9.7499327997E-01
  1.5765886288E+04  4.2564899636E+01  3.9126644358E+00  6.6759577592E+01  3.4007477990E+00  9.7561049843E-01
  1.5862876254E+04  4.3013181694E+01  3.9118266497E+00  6.8158842426E+01  3.4065126348E+00  9.7621122793E-01
  1.5959866221E+04  4.3463409175E+01  3.9109941481E+00  6.9578637000E+01  3.4121593160E+00  9.7679591151E-01
  1.6056856187E+04  4.3916607930E+01  3.9102299224E+00  7.1019135006E+01  3.4177450465E+00  9.7736498162E-01
  1.6153846154E+04  4.4372123617E+01  3.9094924733E+00  7.2480510543E+01  3.4232371029E+00  9.7791886804E-01
  1.6250836120E+04  4.4829594797E+01  3.9087595766E+00  7.3962938109E+01  3.4286190481E+00  9.7845799654E-01
  1.6347826087E+04  4.5290260292E+01  3.9081050359E+00  7.5466592607E+01  3.4339576216E+00  9.7898278776E-01
  1.6444816054E+04  4.5753032443E+01  3.9074627098E+00  7.6991649335E+01  3.4391982183E+00  9.7949365621E-01
  1.6541806020E+04  4.6217782797E+01  3.9068250084E+00  7.8538283992E+01  3.4443367386E+00  9.7999100533E-01
  1.6638795987E+04  4.6685854013E+01  3.9062695813E+00  8.0106672672E+01  3.4494434886E+00  9.8047520348E-01
  1.6735785953E+04  4.7155903745E+01  3.9057174607E+00  8.1696991864E+01  3.4544520593E+00  9.8094660418E-01
  1.6832775920E+04  4.7628022672E+01  3.9051739274E+00  8.3309418451E+01  3.4593693629E+00  9.8140555839E-01
  1.6929765886E+04  4.8103381199E+01  3.9047046324E+00  8.4944129707E+01  3.4642553896E+00  9.8185241355E-01
  1.7026755853E+04  4.8580727899E+01  3.9042380743E+00  8.6601303299E+01  3.4690496542E+00  9.8228751270E-01
  1.7123745819E+04  4.9060165401E+01  3.9037800455E+00  8.8281117280E+01  3.4737593664E+00  9.8271119372E-01
  1.7220735786E+04  4.9542829016E+01  3.9033924449E+00  8.9983750094E+01  3.4784413453E+00  9.8312378476E-01
  1.7317725753E+04  5.0027490336E+01  3.9030070594E+00  9.1709380570E+01  3.4830374670E+00  9.8352558636E-01
  1.7414715719E+04  5.0514195231E+01  3.9026264817E+00  9.3458187922E+01  3.4875519628E+00  9.8391688872E-01
  1.7511705686E+04  5.1004180650E+01  3.9023163958E+00  9.5230358596E+01  3.4920451375E+00  9.8429797956E-01
  1.7608695652E+04  5.1496173174E+01  3.9020080470E+00  9.7026116609E+01  3.4964579577E+00  9.8466914331E-01
  1.7705685619E+04  5.1990169903E+01  3.9017014161E+00  9.8845593239E+01  3.5007921172E+00  9.8503066051E-01
  1.7802675585E+04  5.2487422649E+01  3.9014611050E+00  1.0068896925E+02  3.5051070869E+00  9.8538280721E-01
  1.7899665552E+04  5.2986768264E+01  3.9012260653E+00  1.0255642580E+02  3.5093501895E+00  9.8572584687E-01
  1.7996655518E+04  5.3488127522E+01  3.9009923098E+00  1.0444814441E+02  3.5135195088E+00  9.8606002282E-01
  1.8093645485E+04  5.3992553583E+01  3.9008125659E+00  1.0636430698E+02  3.5176640039E+00  9.8638557419E-01
  1.8190635452E+04  5.4499277050E+01  3.9006474103E+00  1.0830509578E+02  3.5217499882E+00  9.8670273758E-01
  1.8287625418E+04  5.5008023594E+01  3.9004831399E+00  1.1027069348E+02  3.5257666880E+00  9.8701174651E-01
  1.8384615385E+04  5.5519576063E+01  3.9003578086E+00  1.1226128308E+02  3.5297499210E+00  9.8731283101E-01
  1.8481605351E+04  5.6033701165E+01  3.9002592866E+00  1.1427704798E+02  3.5336903141E+00  9.8760621554E-01
  1.8578595318E+04  5.6549858765E+01  3.9001612829E+00  1.1631817196E+02  3.5375655761E+00  9.8789210804E-01
  1.8675585284E+04  5.7068489247E+01  3.9000846234E+00  1.1838483913E+02  3.5413959493E+00  9.8817070812E-01
  1.8772575251E+04  5.7590038729E+01  3.9000496461E+00  1.2047723401E+02  3.5452013012E+00  9.8844221333E-01
  1.8869565217E+04  5.8113630108E+01  3.9000148493E+00  1.2259554146E+02  3.5489453599E+00  9.8870681871E-01
  1.8966555184E+04  5.8639288884E+01  3.8999815123E+00  1.2473994672E+02  3.5526305522E+00  9.8896471644E-01
  1.9063545151E+04  5.9168284445E+01  3.9000071407E+00  1.2691063537E+02  3.5563105234E+00  9.8921609821E-01
  1.9160535117E+04  5.9699331268E+01  3.9000326392E+00  1.2910779338E+02  3.5599327510E+00  9.8946115427E-01
  1.9257525084E+04  6.0232426865E+01  3.9000580092E+00  1.3133160708E+02  3.5634984047E+00  9.8970004542E-01
  1.9354515050E+04  6.0768429747E+01  3.9001210811E+00  1.3358226314E+02  3.5670432365E+00  9.8993292876E-01
  1.9451505017E+04  6.1306952620E+01  3.9002041017E+00  1.3585994861E+02  3.5705522197E+00  9.9015996047E-01
  1.9548494983E+04  6.1847533665E+01  3.9002867111E+00  1.3816485089E+02  3.5740078315E+00  9.9038129540E-01
  1.9645484950E+04  6.2390462967E+01  3.9003813982E+00  1.4049715774E+02  3.5774225967E+00  9.9059708669E-01
  1.9742474916E+04  6.2936481428E+01  3.9005192967E+00  1.4285705727E+02  3.5808262062E+00  9.9080748546E-01
  1.9839464883E+04  6.3484567410E+01  3.9006565243E+00  1.4524473796E+02  3.5841794125E+00  9.9101264050E-01
  1.9936454849E+04  6.4034718579E+01  3.9007930874E+00  1.4766038862E+02  3.5874832014E+00  9.9121269803E-01
  2.0033444816E+04  6.4587902620E+01  3.9009688914E+00  1.5010488444E+02  3.5907757322E+00  9.9140780155E-01
  2.0130434783E+04  6.5143512789E+01  3.9011582767E+00  1.5257906990E+02  3.5940346868E+00  9.9159809162E-01
  2.0227424749E+04  6.5701197514E+01  3.9013467609E+00  1.5508185033E+02  3.5972468718E+00  9.9178370457E-01
  2.0324414716E+04  6.6261200258E+01  3.9015441874E+00  1.5761341672E+02  3.6004222855E+00  9.9196476159E-01
  2.0421404682E+04  6.6824357532E+01  3.9017836087E+00  1.6017396040E+02  3.6035924381E+00  9.9214137571E-01
  2.0518394649E+04  6.7389598733E+01  3.9020219102E+00  1.6276367307E+02  3.6067183180E+00  9.9231365930E-01
  2.0615384615E+04  6.7956921667E+01  3.9022591023E+00  1.6538274677E+02  3.6098007611E+00  9.9248172386E-01
  2.0712374582E+04  6.8527090888E+01  3.9025248289E+00  1.6803137389E+02  3.6128681132E+00  9.9264567974E-01
  2.0809364548E+04  6.9099912329E+01  3.9028110142E+00  1.7070974716E+02  3.6159137288E+00  9.9280563590E-01
  2.0906354515E+04  6.9674824952E+01  3.9030958897E+00  1.7341805968E+02  3.6189181717E+00  9.9296169975E-01
  2.1003344482E+04  7.0251826636E+01  3.9033794672E+00  1.7615650487E+02  3.6218822039E+00  9.9311397692E-01
  2.1100334448E+04  7.0832125846E+01  3.9037069626E+00  1.7892527652E+02  3.6248487170E+00  9.9326257117E-01
  2.1197324415E+04  7.1414651187E+01  3.9040376868E+00  1.8172456876E+02  3.6277805652E+00  9.9340758424E-01
  2.1294314381E+04  7.1999275102E+01  3.9043669290E+00  1.8455457604E+02  3.6306740588E+00  9.9354911559E-01
  2.1391304348E+04  7.2586223945E+01  3.9047030133E+00  1.8741549318E+02  3.6335376623E+00  9.9368725642E-01
  2.1488294314E+04  7.3176384273E+01  3.9050778294E+00  1.9030751534E+02  3.6364018961E+00  9.9382208987E-01
  2.1585284281E+04  7.3768652691E+01  3.9054509932E+00  1.9323083800E+02  3.6392296909E+00  9.9395369818E-01
  2.1682274247E+04  7.4363027206E+01  3.9058225194E+00  1.9618565700E+02  3.6420216967E+00  9.9408216287E-01
  2.1779264214E+04  7.4960005320E+01  3.9062099979E+00  1.9917216851E+02  3.6447950320E+00  9.9420756460E-01
  2.1876254181E+04  7.5559939741E+01  3.9066254124E+00  2.0219056904E+02  3.6475615893E+00  9.9432998298E-01
  2.1973244147E+04  7.6161989825E+01  3.9070390331E+00  2.0524105544E+02  3.6502941018E+00  9.9444949646E-01
  2.2070234114E+04  7.6766153645E+01  3.9074508755E+00  2.0832382489E+02  3.6529931646E+00  9.9456618221E-01
  2.2167224080E+04  7.7373113900E+01  3.9078842626E+00  2.1143907491E+02  3.6556812844E+00  9.9468011603E-01
  2.2264214047E+04  7.7982860267E+01  3.9083383866E+00  2.1458700336E+02  3.6583583021E+00  9.9479137226E-01
  2.2361204013E+04  7.8594729977E+01  3.9087905891E+00  2.1776780841E+02  3.6610034607E+00  9.9490002309E-01
  2.2458193980E+04  7.9208721165E+01  3.9092408863E+00  2.2098168860E+02  3.6636173056E+00  9.9500613366E-01
  2.2555183946E+04  7.9825612806E+01  3.9097150266E+00  2.2422884277E+02  3.6662246446E+00  9.9510976551E-01
  2.2652173913E+04  8.0445208321E+01  3.9102060723E+00  2.2750947010E+02  3.6688194841E+00  9.9521097970E-01
  2.2749163880E+04  8.1066934954E+01  3.9106950812E+00  2.3082377011E+02  3.6713844625E+00  9.9530983665E-01
  2.2846153846E+04  8.1690790902E+01  3.9111820705E+00  2.3417194263E+02  3.6739200807E+00  9.9540639603E-01
  2.2943143813E+04  8.2317559678E+01  3.9116921196E+00  2.3755418784E+02  3.6764505346E+00  9.9550071671E-01
  2.3040133779E+04  8.2947040857E+01  3.9122183928E+00  2.4097070622E+02  3.6789698623E+00  9.9559285664E-01
  2.3137123746E+04  8.3578661016E+01  3.9127425255E+00  2.4442169861E+02  3.6814611582E+00  9.9568287275E-01
  2.3234113712E+04  8.4212418413E+01  3.9132645354E+00  2.4790736615E+02  3.6839248831E+00  9.9577082097E-01
  2.3331103679E+04  8.4849006716E+01  3.9138059427E+00  2.5142791032E+02  3.6863818769E+00  9.9585675597E-01
  2.3428093645E+04  8.5488409361E+01  3.9143658359E+00  2.5498353291E+02  3.6888317357E+00  9.9594072818E-01
  2.3525083612E+04  8.6129958927E+01  3.9149234957E+00  2.5857443604E+02  3.6912552401E+00  9.9602278440E-01
  2.3622073579E+04  8.6773653727E+01  3.9154789399E+00  2.6220082216E+02  3.6936528143E+00  9.9610297092E-01
  2.3719063545E+04  8.7420000733E+01  3.9160474317E+00  2.6586289403E+02  3.6960393634E+00  9.9618133356E-01
  2.3816053512E+04  8.8069359906E+01  3.9166394186E+00  2.6956085473E+02  3.6984252363E+00  9.9625791754E-01
  2.3913043478E+04  8.8720874007E+01  3.9172290886E+00  2.7329490768E+02  3.7007862951E+00  9.9633276750E-01
  2.4010033445E+04  8.9374541404E+01  3.9178164599E+00  2.7706525658E+02  3.7031229308E+00  9.9640592735E-01
  2.4107023411E+04  9.0030583220E+01  3.9184080246E+00  2.8087210549E+02  3.7054416935E+00  9.9647744029E-01
  2.4204013378E+04  9.0689933216E+01  3.9190306541E+00  2.8471565877E+02  3.7077685600E+00  9.9654734873E-01
  2.4301003344E+04  9.1351446205E+01  3.9196508919E+00  2.8859612108E+02  3.7100720287E+00  9.9661569398E-01
  2.4397993311E+04  9.2015120609E+01  3.9202687568E+00  2.9251369743E+02  3.7123524607E+00  9.9668251388E-01
  2.4494983278E+04  9.2680954854E+01  3.9208842671E+00  2.9646859312E+02  3.7146102103E+00  9.9674784429E-01
  2.4591973244E+04  9.3350164749E+01  3.9215315223E+00  3.0046101377E+02  3.7168781717E+00  9.9681172071E-01
  2.4688963211E+04  9.4021710182E+01  3.9221809551E+00  3.0449116532E+02  3.7191284643E+00  9.9687417823E-01
  2.4785953177E+04  9.4695425197E+01  3.9228279485E+00  3.0855925401E+02  3.7213569974E+00  9.9693525151E-01
  2.4882943144E+04  9.5371308271E+01  3.9234725212E+00  3.1266548641E+02  3.7235640986E+00  9.9699497467E-01
  2.4979933110E+04  9.6050084824E+01  3.9241344546E+00  3.1681006939E+02  3.7257689985E+00  9.9705338134E-01
  2.5076923077E+04  9.6731695504E+01  3.9248117975E+00  3.2100447576E+02  3.7279716717E+00  9.9711050453E-01
  2.5173913043E+04  9.7415483973E+01  3.9254866420E+00  3.2524087212E+02  3.7301541125E+00  9.9716637687E-01
  2.5270903010E+04  9.8101448760E+01  3.9261590068E+00  3.2951656361E+02  3.7323162237E+00  9.9722103352E-01
  2.5367892977E+04  9.8789718908E+01  3.9268323706E+00  3.3383176179E+02  3.7344616206E+00  9.9727450291E-01
  2.5464882943E+04  9.9481427250E+01  3.9275365510E+00  3.3818667855E+02  3.7366191698E+00  9.9732681083E-01
  2.5561872910E+04  1.0017532163E+02  3.9282381800E+00  3.4258152611E+02  3.7387571775E+00  9.9737798297E-01
  2.5658862876E+04  1.0087140062E+02  3.9289372764E+00  3.4701651699E+02  3.7408759265E+00  9.9742804492E-01
  2.5755852843E+04  1.0156966280E+02  3.9296338590E+00  3.5149186404E+02  3.7429756945E+00  9.9747702206E-01
  2.5852842809E+04  1.0227092653E+02  3.9303490423E+00  3.5600778044E+02  3.7450770073E+00  9.9752493955E-01
  2.5949832776E+04  1.0297495863E+02  3.9310764991E+00  3.6056447968E+02  3.7471740615E+00  9.9757182228E-01
  2.6046822742E+04  1.0368118366E+02  3.9318013758E+00  3.6516217556E+02  3.7492528472E+00  9.9761769482E-01
  2.6143812709E+04  1.0438960026E+02  3.9325236913E+00  3.6980108221E+02  3.7513136223E+00  9.9766258141E-01
  2.6240802676E+04  1.0510021001E+02  3.9332435383E+00  3.7448141406E+02  3.7533567115E+00  9.9770650592E-01
  2.6337792642E+04  1.0581441079E+02  3.9339959094E+00  3.7920338587E+02  3.7554159969E+00  9.9774949182E-01
  2.6434782609E+04  1.0653081287E+02  3.9347456581E+00  3.8396721271E+02  3.7574579306E+00  9.9779156217E-01
  2.6531772575E+04  1.0724941490E+02  3.9354928030E+00  3.8877310996E+02  3.7594827525E+00  9.9783273961E-01
  2.6628762542E+04  1.0797021556E+02  3.9362373628E+00  3.9362129333E+02  3.7614906982E+00  9.9787304632E-01
  2.6725752508E+04  1.0869368918E+02  3.9369909859E+00  3.9851197882E+02  3.7634931971E+00  9.9791250404E-01
  2.6822742475E+04  1.0942029843E+02  3.9377647382E+00  4.0344538276E+02  3.7655011290E+00  9.9795113406E-01
  2.6919732441E+04  1.1014911605E+02  3.9385358489E+00  4.0842172177E+02  3.7674927824E+00  9.9798895714E-01
  2.7016722408E+04  1.1088014076E+02  3.9393043365E+00  4.1344121281E+02  3.7694683770E+00  9.9802599190E-01
  2.7113712375E+04  1.1161337128E+02  3.9400702193E+00  4.1850407313E+02  3.7714281284E+00  9.9806225489E-01
  2.7210702341E+04  1.1234964590E+02  3.9408534784E+00  4.2361052029E+02  3.7733914982E+00  9.9809776252E-01
  2.7307692308E+04  1.1308870839E+02  3.9416477284E+00  4.2876077216E+02  3.7753525364E+00  9.9813253110E-01
  2.7404682274E+04  1.1382998643E+02  3.9424393215E+00  4.3395504693E+02  3.7772982749E+00  9.9816657687E-01
  2.7501672241E+04  1.1457347878E+02  3.9432282762E+00  4.3919356309E+02  3.7792289149E+00  9.9819991589E-01
  2.7598662207E+04  1.1531918422E+02  3.9440146104E+00  4.4447653942E+02  3.7811446542E+00  9.9823256407E-01
  2.7695652174E+04  1.1606819204E+02  3.9448235733E+00  4.4980419503E+02  3.7830700501E+00  9.9826453713E-01
  2.7792642140E+04  1.1681975180E+02  3.9456374844E+00  4.5517674932E+02  3.7849882219E+00  9.9829585059E-01
  2.7889632107E+04  1.1757353438E+02  3.9464487272E+00  4.6059442201E+02  3.7868919877E+00  9.9832651973E-01
  2.7986622074E+04  1.1832953860E+02  3.9472573197E+00  4.6605743311E+02  3.7887815324E+00  9.9835655962E-01
  2.8083612040E+04  1.1908776326E+02  3.9480632795E+00  4.7156600294E+02  3.7906570378E+00  9.9838598506E-01
  2.8180602007E+04  1.1984943174E+02  3.9488942095E+00  4.7712035212E+02  3.7925453527E+00  9.9841481059E-01
  2.8277591973E+04  1.2061353203E+02  3.9497269892E+00  4.8272070157E+02  3.7944242989E+00  9.9844305049E-01
  2.8374581940E+04  1.2137986250E+02  3.9505570921E+00  4.8836727252E+02  3.7962896569E+00  9.9847071877E-01
  2.8471571906E+04  1.2214842200E+02  3.9513845359E+00  4.9406028649E+02  3.7981415970E+00  9.9849782915E-01
  2.8568561873E+04  1.2291920937E+02  3.9522093382E+00  4.9979996532E+02  3.7999802864E+00  9.9852439499E-01
  2.8665551839E+04  1.2369346145E+02  3.9530586837E+00  5.0558653112E+02  3.8018321875E+00  9.9855042819E-01
  2.8762541806E+04  1.2447014474E+02  3.9539095795E+00  5.1142020632E+02  3.8036752040E+00  9.9857593966E-01
  2.8859531773E+04  1.2524906561E+02  3.9547577931E+00  5.1730121364E+02  3.8055053820E+00  9.9860094026E-01
  2.8956521739E+04  1.2603022298E+02  3.9556033419E+00  5.2322977611E+02  3.8073228784E+00  9.9862544076E-01
  2.9053511706E+04  1.2681361572E+02  3.9564462431E+00  5.2920611704E+02  3.8091278475E+00  9.9864945187E-01
  2.9150501672E+04  1.2760037002E+02  3.9573106271E+00  5.3523046006E+02  3.8109438089E+00  9.9867298415E-01
  2.9247491639E+04  1.2838967790E+02  3.9581789245E+00  5.4130302906E+02  3.8127538829E+00  9.9869604810E-01
  2.9344481605E+04  1.2918123085E+02  3.9590445368E+00  5.4742404826E+02  3.8145518068E+00  9.9871865403E-01
  2.9441471572E+04  1.2997502780E+02  3.9599074812E+00  5.5359374216E+02  3.8163377255E+00  9.9874081216E-01
  2.9538461538E+04  1.3077106771E+02  3.9607677746E+00  5.5981233556E+02  3.8181117813E+00  9.9876253252E-01
  2.9635451505E+04  1.3157023874E+02  3.9616439856E+00  5.6608005353E+02  3.8198921121E+00  9.9878382501E-01
  2.9732441472E+04  1.3237221193E+02  3.9625290050E+00  5.7239712148E+02  3.8216719543E+00  9.9880469937E-01
  2.9829431438E+04  1.3317643773E+02  3.9634113389E+00  5.7876376507E+02  3.8234402796E+00  9.9882516513E-01
  2.9926421405E+04  1.3398291510E+02  3.9642910041E+00  5.8518021026E+02  3.8251972219E+00  9.9884523170E-01
  3.0023411371E+04  1.3479164303E+02  3.9651680171E+00  5.9164667095E+02  3.8269429124E+00  9.9886490827E-01
  3.0120401338E+04  1.3560314091E+02  3.9660530089E+00  5.9816334656E+02  3.8286877865E+00  9.9888420467E-01
  3.0217391304E+04  1.3641781771E+02  3.9669541267E+00  6.0473050248E+02  3.8304398777E+00  9.9890313196E-01
  3.0314381271E+04  1.3723475467E+02  3.9678525605E+00  6.1134836582E+02  3.8321810353E+00  9.9892169702E-01
  3.0411371237E+04  1.3805395081E+02  3.9687483269E+00  6.1801716399E+02  3.8339113833E+00  9.9893990637E-01
  3.0508361204E+04  1.3887540515E+02  3.9696414423E+00  6.2473712470E+02  3.8356310439E+00  9.9895776655E-01
  3.0605351171E+04  1.3969913632E+02  3.9705323164E+00  6.3150847593E+02  3.8373405198E+00  9.9897528413E-01
  3.0702341137E+04  1.4052655019E+02  3.9714489944E+00  6.3833144595E+02  3.8390671710E+00  9.9899246568E-01
  3.0799331104E+04  1.4135623179E+02  3.9723629917E+00  6.4520626332E+02  3.8407834266E+00  9.9900931775E-01
  3.0896321070E+04  1.4218818015E+02  3.9732743246E+00  6.5213315690E+02  3.8424894018E+00  9.9902584688E-01
  3.0993311037E+04  1.4302239432E+02  3.9741830092E+00  6.5911235580E+02  3.8441852101E+00  9.9904205955E-01
  3.1090301003E+04  1.4385887335E+02  3.9750890615E+00  6.6614408946E+02  3.8458709630E+00  9.9905796222E-01
  3.1187290970E+04  1.4469844449E+02  3.9760087381E+00  6.7322858758E+02  3.8475625647E+00  9.9907356127E-01
