#[MATERIAL DEFINITION FOR MC-GPU: interaction mean free path and sampling data from PENELOPE 2006]
#[MATERIAL NAME]
# MATERIAL16                                                    
#[NOMINAL DENSITY (g/cm^3)]
#   1.00000000
#[NUMBER OF DATA VALUES]
#   1495
#[MEAN FREE PATHS (cm) (ie, average distance between interactions)]
#[Energy (eV)     | Rayleigh        | Compton         | Photoelectric   | TOTAL (+pair prod) (cm) | Rayleigh: max cumul prob F^2]
  5.0000000000E+03  1.4096354204E+00  8.8317290634E+00  7.5337470076E-03  7.4873442155E-03  2.6808683760E-01
  5.0969899666E+03  1.4363923522E+00  8.7529522610E+00  7.9384818884E-03  7.8877351209E-03  2.7297668082E-01
  5.1939799331E+03  1.4633326784E+00  8.6774006195E+00  8.3566273847E-03  8.3012273562E-03  2.7781835746E-01
  5.2909698997E+03  1.4904531868E+00  8.6048874810E+00  8.7883609841E-03  8.7279829153E-03  2.8261352067E-01
  5.3879598662E+03  1.5177505871E+00  8.5352394711E+00  9.2338590668E-03  9.1681621993E-03  2.8736373761E-01
  5.4849498328E+03  1.5452215232E+00  8.4682953461E+00  9.6934079339E-03  9.6220334076E-03  2.9207048465E-01
  5.5819397993E+03  1.5728625851E+00  8.4039049589E+00  1.0168409575E-02  1.0090962758E-02  2.9673521845E-01
  5.6789297659E+03  1.6006703206E+00  8.3419283296E+00  1.0657802468E-02  1.0573888558E-02  3.0135936491E-01
  5.7759197324E+03  1.6286412467E+00  8.2822348088E+00  1.1161761471E-02  1.1070967421E-02  3.0594422498E-01
  5.8729096990E+03  1.6567718605E+00  8.2247023220E+00  1.1680460444E-02  1.1582354424E-02  3.1049103815E-01
  5.9698996656E+03  1.6850586543E+00  8.1692166814E+00  1.2214072275E-02  1.2108203122E-02  3.1500103151E-01
  6.0668896321E+03  1.7134983503E+00  8.1156706266E+00  1.2763967437E-02  1.2649842773E-02  3.1947535837E-01
  6.1638795987E+03  1.7420883037E+00  8.0639627186E+00  1.3329756297E-02  1.3206871647E-02  3.2391506155E-01
  6.2608695652E+03  1.7708264593E+00  8.0139970096E+00  1.3913177840E-02  1.3780977016E-02  3.2832116814E-01
  6.3578595318E+03  1.7997107785E+00  7.9656834918E+00  1.4518660251E-02  1.4376478752E-02  3.3269471496E-01
  6.4548494983E+03  1.8287479481E+00  7.9189777115E+00  1.5140638544E-02  1.4987894201E-02  3.3703657805E-01
  6.5518394649E+03  1.8579381069E+00  7.8738079280E+00  1.5782099607E-02  1.5618128070E-02  3.4134753218E-01
  6.6488294314E+03  1.8872702187E+00  7.8300577906E+00  1.6441685261E-02  1.6265823990E-02  3.4562835254E-01
  6.7458193980E+03  1.9167420738E+00  7.7876567075E+00  1.7118606100E-02  1.6930185546E-02  3.4987981428E-01
  6.8428093645E+03  1.9463514474E+00  7.7465382904E+00  1.7813055791E-02  1.7611378905E-02  3.5410269196E-01
  6.9397993311E+03  1.9760961062E+00  7.7066400672E+00  1.8525227289E-02  1.8309568768E-02  3.5829772321E-01
  7.0367892977E+03  2.0059748067E+00  7.6679072169E+00  1.9256656145E-02  1.9026229828E-02  3.6246546709E-01
  7.1337792642E+03  2.0360155561E+00  7.6304009529E+00  2.0008537283E-02  1.9762503719E-02  3.6660643860E-01
  7.2307692308E+03  2.0661883155E+00  7.5939495042E+00  2.0778934321E-02  2.0516469193E-02  3.7072115773E-01
  7.3277591973E+03  2.0964915759E+00  7.5585027504E+00  2.1568042538E-02  2.1288289618E-02  3.7481014840E-01
  7.4247491639E+03  2.1269237480E+00  7.5240134842E+00  2.2376056567E-02  2.2078126879E-02  3.7887393749E-01
  7.5217391304E+03  2.1575014521E+00  7.4904998963E+00  2.3203170401E-02  2.2886144013E-02  3.8291298894E-01
  7.6187290970E+03  2.1882300311E+00  7.4579371220E+00  2.4049577406E-02  2.3712501345E-02  3.8692764954E-01
  7.7157190635E+03  2.2190851369E+00  7.4262052587E+00  2.4915470327E-02  2.4557353241E-02  3.9091826177E-01
  7.8127090301E+03  2.2500649006E+00  7.3952667018E+00  2.5801041299E-02  2.5420855688E-02  3.9488517436E-01
  7.9096989967E+03  2.2811970724E+00  7.3651760388E+00  2.6706481860E-02  2.6303168264E-02  3.9882874163E-01
  8.0066889632E+03  2.3124731688E+00  7.3358716515E+00  2.7633077610E-02  2.7205504456E-02  4.0274929958E-01
  8.1036789298E+03  2.3438710436E+00  7.3072582502E+00  2.8595192839E-02  2.8141738136E-02  4.0664708804E-01
  8.2006688963E+03  2.3753982465E+00  7.2793324481E+00  2.9578681972E-02  2.9098112896E-02  4.1052232919E-01
  8.2976588629E+03  2.4070941350E+00  7.2521728955E+00  3.0583756199E-02  3.0074804481E-02  4.1437525254E-01
  8.3946488294E+03  2.4389094076E+00  7.2256172937E+00  3.1610626229E-02  3.1071969795E-02  4.1820609419E-01
  8.4916387960E+03  2.4708439302E+00  7.1996455911E+00  3.2659502301E-02  3.2089773416E-02  4.2201507656E-01
  8.5886287625E+03  2.5029597175E+00  7.1743883680E+00  3.3730594188E-02  3.3128392492E-02  4.2580235142E-01
  8.6856187291E+03  2.5351919270E+00  7.1496600305E+00  3.4824111199E-02  3.4187974913E-02  4.2956806098E-01
  8.7826086957E+03  2.5675463112E+00  7.1254579457E+00  3.5940262192E-02  3.5268682107E-02  4.3331235491E-01
  8.8795986622E+03  2.6000807066E+00  7.1018921535E+00  3.7079255574E-02  3.6370687356E-02  4.3703539137E-01
  8.9765886288E+03  2.6327278708E+00  7.0787902968E+00  3.8241299310E-02  3.7494131679E-02  4.4073734288E-01
  9.0735785953E+03  2.6655144196E+00  7.0561951741E+00  3.9432691781E-02  3.8645027649E-02  4.4441828486E-01
  9.1705685619E+03  2.6984651901E+00  7.0341371586E+00  4.0649844877E-02  3.9819879152E-02  4.4807827140E-01
  9.2675585284E+03  2.7315248106E+00  7.0124870641E+00  4.1891084169E-02  4.1017014148E-02  4.5171736508E-01
  9.3645484950E+03  2.7647581155E+00  6.9913563235E+00  4.3156624426E-02  4.2236609602E-02  4.5533563637E-01
  9.4615384615E+03  2.7981239451E+00  6.9706468755E+00  4.4446680025E-02  4.3478810379E-02  4.5893316314E-01
  9.5585284281E+03  2.8316153738E+00  6.9503343279E+00  4.5761464961E-02  4.4743769228E-02  4.6251003014E-01
  9.6555183946E+03  2.8652905797E+00  6.9305047177E+00  4.7101192842E-02  4.6031658596E-02  4.6606632854E-01
  9.7525083612E+03  2.8990685324E+00  6.9110042386E+00  4.8466076905E-02  4.7342604015E-02  4.6960214874E-01
  9.8494983278E+03  2.9330328818E+00  6.8919599529E+00  4.9856330009E-02  4.8676784362E-02  4.7311751318E-01
  9.9464882943E+03  2.9671213783E+00  6.8732552042E+00  5.1272164648E-02  5.0034327098E-02  4.7661241956E-01
  1.0043478261E+04  3.0013587444E+00  6.8549192122E+00  5.2720180969E-02  5.1421465436E-02  4.8008687532E-01
  1.0140468227E+04  3.0357602586E+00  6.8369610020E+00  5.4202544813E-02  5.2840189636E-02  4.8354089562E-01
  1.0237458194E+04  3.0702763122E+00  6.8192978035E+00  5.5711798761E-02  5.4283319150E-02  4.8697450294E-01
  1.0334448161E+04  3.1049935728E+00  6.8020425788E+00  5.7248166803E-02  5.5751041114E-02  4.9038772669E-01
  1.0431438127E+04  3.1398024550E+00  6.7850313622E+00  5.8811872621E-02  5.7243461352E-02  4.9378060277E-01
  1.0528428094E+04  3.1748299950E+00  6.7684283208E+00  6.0403139594E-02  5.8760782846E-02  4.9715316966E-01
  1.0625418060E+04  3.2099544459E+00  6.7520599027E+00  6.2022190803E-02  6.0303100264E-02  5.0050542633E-01
  1.0722408027E+04  3.2452778873E+00  6.7360512944E+00  6.3669249032E-02  6.1870605114E-02  5.0383735373E-01
  1.0819397993E+04  3.2807197243E+00  6.7202896456E+00  6.5344536771E-02  6.3463404379E-02  5.0714894087E-01
  1.0916387960E+04  3.3163452580E+00  6.7048487700E+00  6.7048276216E-02  6.5081671564E-02  5.1044018401E-01
  1.1013377926E+04  3.3521058926E+00  6.6896600772E+00  6.8780689280E-02  6.6725523641E-02  5.1371108634E-01
  1.1110367893E+04  3.3880397466E+00  6.6747618900E+00  7.0541997587E-02  6.8395118921E-02  5.1696165759E-01
  1.1207357860E+04  3.4241201714E+00  6.6601143851E+00  7.2336809281E-02  7.0094699970E-02  5.2019191376E-01
  1.1304347826E+04  3.4603686090E+00  6.6457353687E+00  7.4172721568E-02  7.1831317328E-02  5.2340186227E-01
  1.1401337793E+04  3.4967693846E+00  6.6315991741E+00  7.6038866062E-02  7.3594668963E-02  5.2659148301E-01
  1.1498327759E+04  3.5333387028E+00  6.6177172197E+00  7.7935475222E-02  7.5384904778E-02  5.2976075945E-01
  1.1595317726E+04  3.5700599439E+00  6.6040642083E+00  7.9862781275E-02  7.7202153722E-02  5.3290968202E-01
  1.1692307692E+04  3.6069564712E+00  6.5906585087E+00  8.1821016222E-02  7.9046566990E-02  5.3603824781E-01
  1.1789297659E+04  3.6439978334E+00  6.5774621755E+00  8.3810411834E-02  8.0918260735E-02  5.3914646030E-01
  1.1886287625E+04  3.6812279280E+00  6.5645131287E+00  8.5831199659E-02  8.2817396374E-02  5.4223432906E-01
  1.1983277592E+04  3.7185885937E+00  6.5517484747E+00  8.7883611023E-02  8.4744067231E-02  5.4530185889E-01
  1.2080267559E+04  3.7561586417E+00  6.5392375946E+00  8.9967877029E-02  8.6698455954E-02  5.4834903602E-01
  1.2177257525E+04  3.7938373064E+00  6.5268810204E+00  9.2084228562E-02  8.8680620800E-02  5.5137585090E-01
  1.2274247492E+04  3.8317537192E+00  6.5147908566E+00  9.4232896291E-02  9.0690778990E-02  5.5438230053E-01
  1.2371237458E+04  3.8697485775E+00  6.5028200652E+00  9.6414110666E-02  9.2728939016E-02  5.5736838815E-01
  1.2468227425E+04  3.9080178029E+00  6.4911341471E+00  9.8628101926E-02  9.4795368616E-02  5.6033412301E-01
  1.2565217391E+04  3.9463645434E+00  6.4795595389E+00  1.0089078930E-01  9.6904513010E-02  5.6327952440E-01
  1.2662207358E+04  3.9849554797E+00  6.4682314101E+00  1.0319509905E-01  9.9049832055E-02  5.6620463759E-01
  1.2759197324E+04  4.0236635495E+00  6.4570405614E+00  1.0553377556E-01  1.0122442256E-01  5.6910945999E-01
  1.2856187291E+04  4.0625716328E+00  6.4460495866E+00  1.0790706272E-01  1.0342847528E-01  5.7199398422E-01
  1.2953177258E+04  4.1016488218E+00  6.4352297099E+00  1.1031520425E-01  1.0566208692E-01  5.7485820938E-01
  1.3050167224E+04  4.1408712398E+00  6.4245581231E+00  1.1275844370E-01  1.0792535548E-01  5.7770214077E-01
  1.3147157191E+04  4.1803254377E+00  6.4140971565E+00  1.1523702449E-01  1.1021847624E-01  5.8052578967E-01
  1.3244147157E+04  4.2198614151E+00  6.4037299263E+00  1.1775118987E-01  1.1254142785E-01  5.8332917312E-01
  1.3341137124E+04  4.2596978415E+00  6.3936144213E+00  1.2030118296E-01  1.1489452788E-01  5.8611231370E-01
  1.3438127090E+04  4.2996204327E+00  6.3835899754E+00  1.2288724670E-01  1.1727768562E-01  5.8887523930E-01
  1.3535117057E+04  4.3397698106E+00  6.3737542729E+00  1.2550962389E-01  1.1969114594E-01  5.9161798293E-01
  1.3632107023E+04  4.3800870461E+00  6.3640619804E+00  1.2816855720E-01  1.2213495923E-01  5.9434058246E-01
  1.3729096990E+04  4.4205444294E+00  6.3544906490E+00  1.3086514468E-01  1.2460997649E-01  5.9704308052E-01
  1.3826086957E+04  4.4612643801E+00  6.3451204016E+00  1.3360027200E-01  1.2711700947E-01  5.9972551593E-01
  1.3923076923E+04  4.5020708374E+00  6.3358293301E+00  1.3637275499E-01  1.2965467534E-01  6.0238790346E-01
  1.4020066890E+04  4.5431548375E+00  6.3267407624E+00  1.3918283658E-01  1.3222328252E-01  6.0503025745E-01
  1.4117056856E+04  4.5843739374E+00  6.3177582035E+00  1.4203075957E-01  1.3482277138E-01  6.0765259811E-01
  1.4214046823E+04  4.6257600730E+00  6.3088995840E+00  1.4491676661E-01  1.3745327125E-01  6.1025495125E-01
  1.4311036789E+04  4.6674000059E+00  6.3002165739E+00  1.4784110021E-01  1.4011497912E-01  6.1283734814E-01
  1.4408026756E+04  4.7091297197E+00  6.2916040426E+00  1.5080400274E-01  1.4280778922E-01  6.1539982524E-01
  1.4505016722E+04  4.7511499521E+00  6.2831823198E+00  1.5380571644E-01  1.4553203604E-01  6.1794242402E-01
  1.4602006689E+04  4.7933106425E+00  6.2748573250E+00  1.5684648339E-01  1.4828762193E-01  6.2046519078E-01
  1.4698996656E+04  4.8356238800E+00  6.2666341749E+00  1.5992654555E-01  1.5107464358E-01  6.2296817643E-01
  1.4795986622E+04  4.8782238422E+00  6.2585887361E+00  1.6304614474E-01  1.5389336119E-01  6.2545143633E-01
  1.4892976589E+04  4.9209170773E+00  6.2506060927E+00  1.6620552264E-01  1.5674359820E-01  6.2791502658E-01
  1.4989966555E+04  4.9638683600E+00  6.2427781789E+00  1.6940492079E-01  1.5962565545E-01  6.3035898710E-01
  1.5086956522E+04  5.0070108118E+00  6.2350643898E+00  1.7267791070E-01  1.6256906194E-01  6.3278335648E-01
  1.5183946488E+04  5.0502481596E+00  6.2274094721E+00  1.7599638142E-01  1.6554851091E-01  6.3518817857E-01
  1.5280936455E+04  5.0938382168E+00  6.2199542547E+00  1.7935680608E-01  1.6856109915E-01  6.3757350212E-01
  1.5377926421E+04  5.1375309442E+00  6.2125581990E+00  1.8275944234E-01  1.7160653732E-01  6.3993938066E-01
  1.5474916388E+04  5.1813935464E+00  6.2052573544E+00  1.8620454780E-01  1.7468499763E-01  6.4228587223E-01
  1.5571906355E+04  5.2255435588E+00  6.1981135166E+00  1.8969237995E-01  1.7779673928E-01  6.4461303927E-01
  1.5668896321E+04  5.2697921276E+00  6.1910221846E+00  1.9322319621E-01  1.8094153367E-01  6.4692094837E-01
  1.5765886288E+04  5.3142791526E+00  6.1840580155E+00  1.9679725395E-01  1.8411967417E-01  6.4920967013E-01
  1.5862876254E+04  5.3589887891E+00  6.1772099594E+00  2.0041481043E-01  1.8733120447E-01  6.5147927891E-01
  1.5959866221E+04  5.4037985988E+00  6.1704111610E+00  2.0407612285E-01  1.9057597759E-01  6.5372984421E-01
  1.6056856187E+04  5.4489030382E+00  6.1637641159E+00  2.0778144833E-01  1.9385439289E-01  6.5596142501E-01
  1.6153846154E+04  5.4941775644E+00  6.1572001955E+00  2.1153104391E-01  1.9716629294E-01  6.5817408348E-01
  1.6250836120E+04  5.5395538734E+00  6.1506824956E+00  2.1532516656E-01  2.0051160463E-01  6.6036788616E-01
  1.6347826087E+04  5.5852683152E+00  6.1443339674E+00  2.1916407319E-01  2.0389082273E-01  6.6254290371E-01
  1.6444816054E+04  5.6311128570E+00  6.1380432499E+00  2.2304802060E-01  2.0730361070E-01  6.6469921078E-01
  1.6541806020E+04  5.6770632333E+00  6.1317971818E+00  2.2697726554E-01  2.1074996267E-01  6.6683688584E-01
  1.6638795987E+04  5.7233774239E+00  6.1257281631E+00  2.3095206469E-01  2.1423043928E-01  6.6895601093E-01
  1.6735785953E+04  5.7697969688E+00  6.1197003736E+00  2.3497267465E-01  2.1774457012E-01  6.7105667159E-01
  1.6832775920E+04  5.8163396871E+00  6.1137226196E+00  2.3903935194E-01  2.2129242470E-01  6.7313895597E-01
  1.6929765886E+04  5.8632321478E+00  6.1079094026E+00  2.4315235301E-01  2.2487452349E-01  6.7520294041E-01
  1.7026755853E+04  5.9102315462E+00  6.1021348747E+00  2.4731193425E-01  2.2849038868E-01  6.7724870156E-01
  1.7123745819E+04  5.9573581751E+00  6.0964090092E+00  2.5151835197E-01  2.3214009020E-01  6.7927632238E-01
  1.7220735786E+04  6.0048336272E+00  6.0908423346E+00  2.5577186240E-01  2.3582416049E-01  6.8128588929E-01
  1.7317725753E+04  6.0524175943E+00  6.0853119648E+00  2.6007272172E-01  2.3954208788E-01  6.8327749201E-01
  1.7414715719E+04  6.1001193430E+00  6.0798222697E+00  2.6442118602E-01  2.4329391127E-01  6.8525122343E-01
  1.7511705686E+04  6.1481823551E+00  6.0744934028E+00  2.6882160318E-01  2.4708369545E-01  6.8720717939E-01
  1.7608695652E+04  6.1963554530E+00  6.0691986010E+00  2.7330047500E-01  2.5093296674E-01  6.8914545854E-01
  1.7705685619E+04  6.2446382804E+00  6.0639374606E+00  2.7782866564E-01  2.5481684458E-01  6.9106616222E-01
  1.7802675585E+04  6.2932780000E+00  6.0588306265E+00  2.8240644224E-01  2.5873597698E-01  6.9297042326E-01
  1.7899665552E+04  6.3420444674E+00  6.0537632000E+00  2.8703407186E-01  2.6268980052E-01  6.9485973970E-01
  1.7996655518E+04  6.3909222322E+00  6.0487273614E+00  2.9171182157E-01  2.6667828083E-01  6.9673416814E-01
  1.8093645485E+04  6.4401191992E+00  6.0438233916E+00  2.9643995836E-01  2.7070198885E-01  6.9859375870E-01
  1.8190635452E+04  6.4894830223E+00  6.0389755528E+00  3.0121874923E-01  2.7476052972E-01  7.0043856425E-01
  1.8287625418E+04  6.5389597011E+00  6.0341573511E+00  3.0604846109E-01  2.7885375531E-01  7.0226864029E-01
  1.8384615385E+04  6.5887038060E+00  6.0294424683E+00  3.1092936085E-01  2.8298210771E-01  7.0408404485E-01
  1.8481605351E+04  6.6386688247E+00  6.0248068555E+00  3.1586171538E-01  2.8714546454E-01  7.0588483839E-01
  1.8578595318E+04  6.6887482480E+00  6.0201990425E+00  3.2084579151E-01  2.9134351182E-01  7.0767108369E-01
  1.8675585284E+04  6.7390291152E+00  6.0156600109E+00  3.2588185602E-01  2.9557650284E-01  7.0944284574E-01
  1.8772575251E+04  6.7895990259E+00  6.0112296591E+00  3.3097488079E-01  2.9984856968E-01  7.1120019164E-01
  1.8869565217E+04  6.8402848804E+00  6.0068253758E+00  3.3612297167E-01  3.0415737596E-01  7.1294319050E-01
  1.8966555184E+04  6.8910918840E+00  6.0024494640E+00  3.4132403258E-01  3.0850097236E-01  7.1467191336E-01
  1.9063545151E+04  6.9422702401E+00  5.9982177781E+00  3.4657833210E-01  3.1288016012E-01  7.1638643308E-01
  1.9160535117E+04  6.9935660699E+00  5.9940105279E+00  3.5188613882E-01  3.1729410465E-01  7.1808682425E-01
  1.9257525084E+04  7.0449790464E+00  5.9898274498E+00  3.5724772125E-01  3.2174277634E-01  7.1977316311E-01
  1.9354515050E+04  7.0966785625E+00  5.9857462048E+00  3.6266334791E-01  3.2622673278E-01  7.2144552744E-01
  1.9451505017E+04  7.1485877697E+00  5.9817298296E+00  3.6813328728E-01  3.3074569697E-01  7.2310399601E-01
  1.9548494983E+04  7.2006156488E+00  5.9777361062E+00  3.7365780779E-01  3.3529932131E-01  7.2474863853E-01
  1.9645484950E+04  7.2528195864E+00  5.9737910314E+00  3.7923717785E-01  3.3988777731E-01  7.2637951709E-01
  1.9742474916E+04  7.3053454323E+00  5.9699596889E+00  3.8487166585E-01  3.4451157672E-01  7.2799669566E-01
  1.9839464883E+04  7.3579914654E+00  5.9661495621E+00  3.9056154015E-01  3.4916994752E-01  7.2960024038E-01
  1.9936454849E+04  7.4107573711E+00  5.9623604306E+00  3.9630706905E-01  3.5386284194E-01  7.3119021941E-01
  2.0033444816E+04  7.4638343724E+00  5.9586774867E+00  4.0212119023E-01  3.5860103633E-01  7.3276670285E-01
  2.0130434783E+04  7.5171021447E+00  5.9550454421E+00  4.0801618549E-01  3.6339348691E-01  7.3432976264E-01
  2.0227424749E+04  7.5704913044E+00  5.9514330529E+00  4.1396855673E-01  3.6822091675E-01  7.3587947249E-01
  2.0324414716E+04  7.6240505077E+00  5.9478614456E+00  4.1997858209E-01  3.7308347022E-01  7.3741590774E-01
  2.0421404682E+04  7.6779461365E+00  5.9444019885E+00  4.2604653973E-01  3.7798179223E-01  7.3893914533E-01
  2.0518394649E+04  7.7319646864E+00  5.9409609207E+00  4.3217270779E-01  3.8291495861E-01  7.4044926363E-01
  2.0615384615E+04  7.7861058547E+00  5.9375380584E+00  4.3835736442E-01  3.8788290490E-01  7.4194634245E-01
  2.0712374582E+04  7.8405236826E+00  5.9341981336E+00  4.4460078776E-01  3.9288623591E-01  7.4343046287E-01
  2.0809364548E+04  7.8951786561E+00  5.9309231440E+00  4.5090325594E-01  3.9792473826E-01  7.4490170722E-01
  2.0906354515E+04  7.9499578139E+00  5.9276651781E+00  4.5726504710E-01  4.0299785659E-01  7.4636015897E-01
  2.1003344482E+04  8.0048608601E+00  5.9244240690E+00  4.6368643938E-01  4.0810551608E-01  7.4780590225E-01
  2.1100334448E+04  8.0601337245E+00  5.9212997027E+00  4.7016771092E-01  4.1324877367E-01  7.4923901526E-01
  2.1197324415E+04  8.1155579256E+00  5.9182017053E+00  4.7670913984E-01  4.1842657834E-01  7.5065957249E-01
  2.1294314381E+04  8.1711076128E+00  5.9151194604E+00  4.8331100427E-01  4.2363873174E-01  7.5206764989E-01
  2.1391304348E+04  8.2268295077E+00  5.9120714169E+00  4.8997358234E-01  4.2888537453E-01  7.5346332480E-01
  2.1488294314E+04  8.2829057945E+00  5.9091286918E+00  4.9669715218E-01  4.3416731683E-01  7.5484667587E-01
  2.1585284281E+04  8.3391091925E+00  5.9062006740E+00  5.0348199190E-01  4.3948339487E-01  7.5621778300E-01
  2.1682274247E+04  8.3954394167E+00  5.9032872245E+00  5.1032837963E-01  4.4483351638E-01  7.5757672723E-01
  2.1779264214E+04  8.4520001013E+00  5.9004279645E+00  5.1723659348E-01  4.5021811273E-01  7.5892359065E-01
  2.1876254181E+04  8.5088642652E+00  5.8976497509E+00  5.2420691157E-01  4.5563748440E-01  7.6025845638E-01
  2.1973244147E+04  8.5658569119E+00  5.8948851269E+00  5.3123961201E-01  4.6109065920E-01  7.6158140845E-01
  2.2070234114E+04  8.6229777627E+00  5.8921339666E+00  5.3833497291E-01  4.6657753508E-01  7.6289253173E-01
  2.2167224080E+04  8.6803705434E+00  5.8894494486E+00  5.4549327239E-01  4.7209877577E-01  7.6419191191E-01
  2.2264214047E+04  8.7380326766E+00  5.8868294796E+00  5.5271478854E-01  4.7765429242E-01  7.6547963536E-01
  2.2361204013E+04  8.7958247021E+00  5.8842220572E+00  5.6000009982E-01  4.8324346685E-01  7.6675578912E-01
  2.2458193980E+04  8.8537463470E+00  5.8816270672E+00  5.6740732170E-01  4.8890912736E-01  7.6802046040E-01
  2.2555183946E+04  8.9119634226E+00  5.8791039015E+00  5.7487987717E-01  4.9460962086E-01  7.6927373130E-01
  2.2652173913E+04  8.9704336918E+00  5.8766362800E+00  5.8241805676E-01  5.0034462830E-01  7.7051568118E-01
  2.2749163880E+04  9.0290353000E+00  5.8741802307E+00  5.9002215100E-01  5.0611335693E-01  7.7174639030E-01
  2.2846153846E+04  9.0877679803E+00  5.8717356504E+00  5.9769245045E-01  5.1191568515E-01  7.7296593977E-01
  2.2943143813E+04  9.1468004099E+00  5.8693610518E+00  6.0542924571E-01  5.1775248621E-01  7.7417441146E-01
  2.3040133779E+04  9.2060890517E+00  5.8670402228E+00  6.1323282741E-01  5.2362341302E-01  7.7537188797E-01
  2.3137123746E+04  9.2655105163E+00  5.8647300551E+00  6.2110348618E-01  5.2952761955E-01  7.7655845256E-01
  2.3234113712E+04  9.3250645427E+00  5.8624304551E+00  6.2904151272E-01  5.3546497483E-01  7.7773418906E-01
  2.3331103679E+04  9.3849022123E+00  5.8601922006E+00  6.3704719772E-01  5.4143628328E-01  7.7889918185E-01
  2.3428093645E+04  9.4450195291E+00  5.8580129259E+00  6.4512083191E-01  5.4744142060E-01  7.8005351574E-01
  2.3525083612E+04  9.5052711895E+00  5.8558434599E+00  6.5326270605E-01  5.5347936144E-01  7.8119727601E-01
  2.3622073579E+04  9.5656569379E+00  5.8536837184E+00  6.6147311093E-01  5.5954996573E-01  7.8233054827E-01
  2.3719063545E+04  9.6262885275E+00  5.8515701076E+00  6.6975233736E-01  5.6565381864E-01  7.8345341844E-01
  2.3816053512E+04  9.6872448830E+00  5.8495274426E+00  6.7810067618E-01  5.7179132242E-01  7.8456597240E-01
  2.3913043478E+04  9.7483371395E+00  5.8474937882E+00  6.8651841826E-01  5.7796112006E-01  7.8566829198E-01
  2.4010033445E+04  9.8095650467E+00  5.8454690681E+00  6.9500585448E-01  5.8416306269E-01  7.8676045645E-01
  2.4107023411E+04  9.8709779961E+00  5.8434688878E+00  7.0356327576E-01  5.9039733673E-01  7.8784254555E-01
  2.4204013378E+04  9.9327838112E+00  5.8415581610E+00  7.1219097305E-01  5.9666523261E-01  7.8891463952E-01
  2.4301003344E+04  9.9947271208E+00  5.8396556965E+00  7.2088923732E-01  6.0296488051E-01  7.8997681897E-01
  2.4397993311E+04  1.0056807680E+01  5.8377614259E+00  7.2965835956E-01  6.0929612316E-01  7.9102916491E-01
  2.4494983278E+04  1.0119025246E+01  5.8358752816E+00  7.3849863080E-01  6.1565880099E-01  7.9207175864E-01
  2.4591973244E+04  1.0181653903E+01  5.8340807099E+00  7.4741034208E-01  6.2205472557E-01  7.9310468173E-01
  2.4688963211E+04  1.0244458775E+01  5.8323050639E+00  7.5639378447E-01  6.2848209335E-01  7.9412801596E-01
  2.4785953177E+04  1.0307402532E+01  5.8305369171E+00  7.6544924908E-01  6.3494047524E-01  7.9514184328E-01
  2.4882943144E+04  1.0370484936E+01  5.8287762087E+00  7.7457702702E-01  6.4142970369E-01  7.9614624577E-01
  2.4979933110E+04  1.0433870206E+01  5.8270718554E+00  7.8377740945E-01  6.4795084879E-01  7.9714130558E-01
  2.5076923077E+04  1.0497544543E+01  5.8254188523E+00  7.9309673039E-01  6.5453503702E-01  7.9812710488E-01
  2.5173913043E+04  1.0561359414E+01  5.8237726964E+00  8.0250228555E-01  6.6115827101E-01  7.9910372347E-01
  2.5270903010E+04  1.0625314585E+01  5.8221333332E+00  8.1198248405E-01  6.6781224611E-01  8.0007123783E-01
  2.5367892977E+04  1.0689437804E+01  5.8205093241E+00  8.2153762741E-01  6.7449701024E-01  8.0102972450E-01
  2.5464882943E+04  1.0753971686E+01  5.8189747675E+00  8.3116801719E-01  6.8121438259E-01  8.0197926020E-01
  2.5561872910E+04  1.0818647619E+01  5.8174464468E+00  8.4087395499E-01  6.8796202636E-01  8.0291992185E-01
  2.5658862876E+04  1.0883465375E+01  5.8159243133E+00  8.5065574248E-01  6.9473975707E-01  8.0385178650E-01
  2.5755852843E+04  1.0948424728E+01  5.8144083186E+00  8.6051368135E-01  7.0154738815E-01  8.0477493126E-01
  2.5852842809E+04  1.1013686920E+01  5.8129510261E+00  8.7044807337E-01  7.0838618027E-01  8.0568943332E-01
  2.5949832776E+04  1.1079205664E+01  5.8115365021E+00  8.8045922034E-01  7.1525557203E-01  8.0659536987E-01
  2.6046822742E+04  1.1144867563E+01  5.8101275975E+00  8.9054742409E-01  7.2215436693E-01  8.0749281809E-01
  2.6143812709E+04  1.1210672392E+01  5.8087242691E+00  9.0071298654E-01  7.2908237139E-01  8.0838185510E-01
  2.6240802676E+04  1.1276620463E+01  5.8073266601E+00  9.1095620963E-01  7.3603939511E-01  8.0926255793E-01
  2.6337792642E+04  1.1342962580E+01  5.8060220970E+00  9.2127739535E-01  7.4302774893E-01  8.1013500245E-01
  2.6434782609E+04  1.1409448987E+01  5.8047226206E+00  9.3167684573E-01  7.5004479397E-01  8.1099926030E-01
  2.6531772575E+04  1.1476079466E+01  5.8034281925E+00  9.4215486286E-01  7.5709033002E-01  8.1185540448E-01
  2.6628762542E+04  1.1542853802E+01  5.8021387749E+00  9.5271174887E-01  7.6416415506E-01  8.1270350819E-01
  2.6725752508E+04  1.1609848742E+01  5.8008834478E+00  9.6334780595E-01  7.7126691960E-01  8.1354364460E-01
  2.6822742475E+04  1.1677138881E+01  5.7996897864E+00  9.7406333631E-01  7.7839928422E-01  8.1437588681E-01
  2.6919732441E+04  1.1744574039E+01  5.7985006777E+00  9.8485864223E-01  7.8555939514E-01  8.1520030760E-01
  2.7016722408E+04  1.1812154004E+01  5.7973160882E+00  9.9573402603E-01  7.9274704426E-01  8.1601697829E-01
  2.7113712375E+04  1.1879878566E+01  5.7961359844E+00  1.0066897901E+00  7.9996202175E-01  8.1682596997E-01
  2.7210702341E+04  1.1947868309E+01  5.7950104076E+00  1.0177262367E+00  8.0720563904E-01  8.1762727688E-01
  2.7307692308E+04  1.2016086058E+01  5.7939232105E+00  1.0288436685E+00  8.1447725948E-01  8.1842136306E-01
  2.7404682274E+04  1.2084449370E+01  5.7928400708E+00  1.0400424768E+00  8.2177569872E-01  8.1921053279E-01
  2.7501672241E+04  1.2152958039E+01  5.7917609592E+00  1.0513232554E+00  8.2910092191E-01  8.1999572661E-01
  2.7598662207E+04  1.2221611858E+01  5.7906858466E+00  1.0626859351E+00  8.3645247903E-01  8.2077696710E-01
  2.7695652174E+04  1.2290547756E+01  5.7896781188E+00  1.0741308186E+00  8.4383214510E-01  8.2155427940E-01
  2.7792642140E+04  1.2359671047E+01  5.7886932109E+00  1.0856582086E+00  8.5123837379E-01  8.2232768871E-01
  2.7889632107E+04  1.2428940258E+01  5.7877119008E+00  1.0972684080E+00  8.5867035077E-01  8.2309722003E-01
  2.7986622074E+04  1.2498355188E+01  5.7867341630E+00  1.1089617194E+00  8.6612785410E-01  8.2386289816E-01
  2.8083612040E+04  1.2567915636E+01  5.7857599720E+00  1.1207384459E+00  8.7361066045E-01  8.2462474767E-01
  2.8180602007E+04  1.2637752933E+01  5.7848587784E+00  1.1325988903E+00  8.8112079630E-01  8.2538279296E-01
  2.8277591973E+04  1.2707758069E+01  5.7839722274E+00  1.1445433556E+00  8.8865622266E-01  8.2613705822E-01
  2.8374581940E+04  1.2777909295E+01  5.7830888471E+00  1.1565721448E+00  8.9621634789E-01  8.2688756743E-01
  2.8471571906E+04  1.2848206416E+01  5.7822086155E+00  1.1686855610E+00  9.0380094424E-01  8.2763434438E-01
  2.8568561873E+04  1.2918649237E+01  5.7813315107E+00  1.1808839072E+00  9.1140978268E-01  8.2837741269E-01
  2.8665551839E+04  1.2989347546E+01  5.7805260836E+00  1.1931674865E+00  9.1904491690E-01  8.2911679576E-01
  2.8762541806E+04  1.3060209238E+01  5.7797341813E+00  1.2055366023E+00  9.2670425622E-01  8.2985251682E-01
  2.8859531773E+04  1.3131217004E+01  5.7789450529E+00  1.2179915576E+00  9.3438721700E-01  8.3058459891E-01
  2.8956521739E+04  1.3202370653E+01  5.7781586792E+00  1.2305326558E+00  9.4209356635E-01  8.3131306487E-01
  2.9053511706E+04  1.3273669994E+01  5.7773750416E+00  1.2431602001E+00  9.4982307028E-01  8.3203793737E-01
  2.9150501672E+04  1.3345193789E+01  5.7766551240E+00  1.2558744939E+00  9.5757757647E-01  8.3275923891E-01
  2.9247491639E+04  1.3416885193E+01  5.7759543701E+00  1.2686758406E+00  9.6535540133E-01  8.3347699179E-01
  2.9344481605E+04  1.3488722467E+01  5.7752560207E+00  1.2815645437E+00  9.7315574569E-01  8.3419121815E-01
  2.9441471572E+04  1.3560705424E+01  5.7745600597E+00  1.2945409065E+00  9.8097837227E-01  8.3490193994E-01
  2.9538461538E+04  1.3632833879E+01  5.7738664712E+00  1.3076052326E+00  9.8882304280E-01  8.3560917896E-01
  2.9635451505E+04  1.3705153004E+01  5.7732222835E+00  1.3207578257E+00  9.9669116013E-01  8.3631295680E-01
  2.9732441472E+04  1.3777645793E+01  5.7726093700E+00  1.3339989892E+00  1.0045819178E+00  8.3701329560E-01
  2.9829431438E+04  1.3850284063E+01  5.7719985173E+00  1.3473290268E+00  1.0124940719E+00  8.3771021816E-01
  2.9926421405E+04  1.3923067631E+01  5.7713897120E+00  1.3607482423E+00  1.0204273816E+00  8.3840374668E-01
  3.0023411371E+04  1.3995996315E+01  5.7707829405E+00  1.3742832368E+00  1.0283963310E+00  8.3909390313E-01
  3.0120401338E+04  1.4069090728E+01  5.7702051340E+00  1.3879917923E+00  1.0364335214E+00  8.3978070930E-01
  3.0217391304E+04  1.4142367010E+01  5.7696768873E+00  1.4017922614E+00  1.0444934178E+00  8.4046418679E-01
  3.0314381271E+04  1.4215788282E+01  5.7691503816E+00  1.4156849615E+00  1.0525740556E+00  8.4114435701E-01
  3.0411371237E+04  1.4289354366E+01  5.7686256056E+00  1.4296702099E+00  1.0606751856E+00  8.4182124117E-01
  3.0508361204E+04  1.4363065083E+01  5.7681025481E+00  1.4437483242E+00  1.0687965580E+00  8.4249486031E-01
  3.0605351171E+04  1.4436921224E+01  5.7675821948E+00  1.4579196219E+00  1.0769379624E+00  8.4316523527E-01
  3.0702341137E+04  1.4510991737E+01  5.7671355023E+00  1.4721844206E+00  1.0851020482E+00  8.4383238674E-01
  3.0799331104E+04  1.4585206857E+01  5.7666902532E+00  1.4865430380E+00  1.0932856997E+00  8.4449633519E-01
  3.0896321070E+04  1.4659566410E+01  5.7662464383E+00  1.5009957920E+00  1.1014886653E+00  8.4515710095E-01
  3.0993311037E+04  1.4734070222E+01  5.7658040483E+00  1.5155430002E+00  1.1097106929E+00  8.4581470416E-01
  3.1090301003E+04  1.4808718120E+01  5.7653630744E+00  1.5301849807E+00  1.1179515297E+00  8.4646916477E-01
  3.1187290970E+04  1.4883561021E+01  5.7649645165E+00  1.5449220514E+00  1.1262127799E+00  8.4712050260E-01
