#[MATERIAL DEFINITION FOR MC-GPU: interaction mean free path and sampling data from PENELOPE 2006]
#[MATERIAL NAME]
# MATERIAL21                                                    
#[NOMINAL DENSITY (g/cm^3)]
#   1.00000000
#[NUMBER OF DATA VALUES]
#   1495
#[MEAN FREE PATHS (cm) (ie, average distance between interactions)]
#[Energy (eV)     | Rayleigh        | Compton         | Photoelectric   | TOTAL (+pair prod) (cm) | Rayleigh: max cumul prob F^2]
  5.0000000000E+03  1.2203212539E+00  9.5976541858E+00  5.7842886901E-03  5.7535494922E-03  2.5756211723E-01
  5.0969899666E+03  1.2427097004E+00  9.5033634403E+00  6.0927223626E-03  6.0591312404E-03  2.6245426369E-01
  5.1939799331E+03  1.2652466129E+00  9.4129505414E+00  6.4112686622E-03  6.3746252750E-03  2.6730291988E-01
  5.2909698997E+03  1.2879297881E+00  9.3261909524E+00  6.7400586222E-03  6.7001528320E-03  2.7210934486E-01
  5.3879598662E+03  1.3107569470E+00  9.2428762176E+00  7.0792224397E-03  7.0358340199E-03  2.7687471748E-01
  5.4849498328E+03  1.3337257439E+00  9.1628125522E+00  7.4289703595E-03  7.3818676771E-03  2.8160014081E-01
  5.5819397993E+03  1.3568337759E+00  9.0858195793E+00  7.7903249165E-03  7.7392538683E-03  2.8628672193E-01
  5.6789297659E+03  1.3800785913E+00  9.0117291946E+00  8.1625139867E-03  8.1072203608E-03  2.9093555632E-01
  5.7759197324E+03  1.4034576979E+00  8.9403845454E+00  8.5456664890E-03  8.4858846287E-03  2.9554762601E-01
  5.8729096990E+03  1.4269685717E+00  8.8716391102E+00  8.9399105921E-03  8.8753630748E-03  3.0012386947E-01
  5.9698996656E+03  1.4506086680E+00  8.8053558607E+00  9.3453737312E-03  9.2757710414E-03  3.0466522960E-01
  6.0668896321E+03  1.4743756187E+00  8.7414061500E+00  9.7630479028E-03  9.6880748709E-03  3.0917259009E-01
  6.1638795987E+03  1.4982675706E+00  8.6796684591E+00  1.0192653976E-02  1.0111987883E-02  3.1364674015E-01
  6.2608695652E+03  1.5222831467E+00  8.6200279683E+00  1.0635622124E-02  1.0548905350E-02  3.1808846677E-01
  6.3578595318E+03  1.5464209610E+00  8.5623769562E+00  1.1095498208E-02  1.1002299963E-02  3.2249857592E-01
  6.4548494983E+03  1.5706877406E+00  8.5066607792E+00  1.1567790398E-02  1.1467738461E-02  3.2687773267E-01
  6.5518394649E+03  1.5950842032E+00  8.4527935919E+00  1.2054887068E-02  1.1947554227E-02  3.3122651818E-01
  6.6488294314E+03  1.6196005752E+00  8.4006377065E+00  1.2555681935E-02  1.2440644010E-02  3.3554552274E-01
  6.7458193980E+03  1.6442352520E+00  8.3501085908E+00  1.3069527944E-02  1.2946357725E-02  3.3983534452E-01
  6.8428093645E+03  1.6689865888E+00  8.3011266976E+00  1.3596568521E-02  1.3464821706E-02  3.4409658852E-01
  6.9397993311E+03  1.6938529054E+00  8.2536171178E+00  1.4136946553E-02  1.3996161295E-02  3.4832983186E-01
  7.0367892977E+03  1.7188334353E+00  8.2075139638E+00  1.4691787782E-02  1.4541464298E-02  3.5253549554E-01
  7.1337792642E+03  1.7439552451E+00  8.1628881531E+00  1.5261967919E-02  1.5101573646E-02  3.5671396873E-01
  7.2307692308E+03  1.7691898747E+00  8.1195368200E+00  1.5846070621E-02  1.5675082439E-02  3.6086565039E-01
  7.3277591973E+03  1.7945359950E+00  8.0773997139E+00  1.6444240339E-02  1.6262115399E-02  3.6499094792E-01
  7.4247491639E+03  1.8199921962E+00  8.0364200159E+00  1.7056621032E-02  1.6862796252E-02  3.6909027579E-01
  7.5217391304E+03  1.8455744403E+00  7.9966185891E+00  1.7683356168E-02  1.7477249656E-02  3.7316399671E-01
  7.6187290970E+03  1.8712879562E+00  7.9579658775E+00  1.8324588739E-02  1.8105598390E-02  3.7721237500E-01
  7.7157190635E+03  1.8971096197E+00  7.9203189264E+00  1.8980461264E-02  1.8747960996E-02  3.8123567540E-01
  7.8127090301E+03  1.9230377412E+00  7.8836322492E+00  1.9651115797E-02  1.9404457282E-02  3.8523417155E-01
  7.9096989967E+03  1.9490989296E+00  7.8479708961E+00  2.0336693936E-02  2.0075209779E-02  3.8920814519E-01
  8.0066889632E+03  1.9752852115E+00  7.8132614581E+00  2.1038194256E-02  2.0761170922E-02  3.9315786506E-01
  8.1036789298E+03  2.0015755326E+00  7.7793890527E+00  2.1766855808E-02  2.1473254635E-02  3.9708351984E-01
  8.2006688963E+03  2.0279772056E+00  7.7463490242E+00  2.2511586533E-02  2.2200631118E-02  4.0098528605E-01
  8.2976588629E+03  2.0545280556E+00  7.7142349671E+00  2.3272543020E-02  2.2943436158E-02  4.0486334908E-01
  8.3946488294E+03  2.0811810256E+00  7.6828513163E+00  2.4049881488E-02  2.3701791891E-02  4.0871790234E-01
  8.4916387960E+03  2.1079360648E+00  7.6521733887E+00  2.4843757791E-02  2.4475826183E-02  4.1254912978E-01
  8.5886287625E+03  2.1348527802E+00  7.6223570437E+00  2.5654327426E-02  2.5265676251E-02  4.1635715724E-01
  8.6856187291E+03  2.1618691228E+00  7.5931791727E+00  2.6481745535E-02  2.6071458017E-02  4.2014210456E-01
  8.7826086957E+03  2.1889906820E+00  7.5646361077E+00  2.7326166909E-02  2.6893297444E-02  4.2390409991E-01
  8.8795986622E+03  2.2162731580E+00  7.5368590305E+00  2.8187745995E-02  2.7731329355E-02  4.2764328052E-01
  8.9765886288E+03  2.2436520583E+00  7.5096410810E+00  2.9066636899E-02  2.8585665032E-02  4.3135979763E-01
  9.0735785953E+03  2.2711530414E+00  7.4830330291E+00  2.9967686666E-02  2.9460967653E-02  4.3505372150E-01
  9.1705685619E+03  2.2987998818E+00  7.4570707907E+00  3.0888122096E-02  3.0354527304E-02  4.3872510593E-01
  9.2675585284E+03  2.3265394171E+00  7.4315994684E+00  3.1826646389E-02  3.1265050019E-02  4.4237401348E-01
  9.3645484950E+03  2.3544336286E+00  7.4067520002E+00  3.2783418755E-02  3.2192674355E-02  4.4600051492E-01
  9.4615384615E+03  2.3824429683E+00  7.3824108112E+00  3.3758598104E-02  3.3137515494E-02  4.4960468869E-01
  9.5585284281E+03  2.4105608879E+00  7.3585464106E+00  3.4752343046E-02  3.4099694582E-02  4.5318662037E-01
  9.6555183946E+03  2.4388425208E+00  7.3352614519E+00  3.5764811899E-02  3.5079347273E-02  4.5674640218E-01
  9.7525083612E+03  2.4672108562E+00  7.3123717239E+00  3.6796162688E-02  3.6076575167E-02  4.6028412689E-01
  9.8494983278E+03  2.4957451167E+00  7.2900289501E+00  3.7846553150E-02  3.7091518901E-02  4.6379983083E-01
  9.9464882943E+03  2.5243862083E+00  7.2680934124E+00  3.8916140741E-02  3.8124281820E-02  4.6729352987E-01
  1.0043478261E+04  2.5531575213E+00  7.2465998240E+00  4.0010012303E-02  3.9179715443E-02  4.7076524914E-01
  1.0140468227E+04  2.5820731841E+00  7.2255585804E+00  4.1129829998E-02  4.0259371473E-02  4.7421502141E-01
  1.0237458194E+04  2.6110865674E+00  7.2048706067E+00  4.2269831179E-02  4.1357669608E-02  4.7764288663E-01
  1.0334448161E+04  2.6402787033E+00  7.1846700144E+00  4.3430181981E-02  4.2474757746E-02  4.8104889154E-01
  1.0431438127E+04  2.6695469444E+00  7.1647612816E+00  4.4611048300E-02  4.3610725272E-02  4.8443308925E-01
  1.0528428094E+04  2.6990097684E+00  7.1453390917E+00  4.5812595795E-02  4.4765731750E-02  4.8779553588E-01
  1.0625418060E+04  2.7285535197E+00  7.1261970214E+00  4.7034989893E-02  4.5939858962E-02  4.9113625445E-01
  1.0722408027E+04  2.7582730838E+00  7.1074831187E+00  4.8278395792E-02  4.7133258452E-02  4.9445525264E-01
  1.0819397993E+04  2.7880934298E+00  7.0890633781E+00  4.9542978459E-02  4.8346021270E-02  4.9775254567E-01
  1.0916387960E+04  2.8180750293E+00  7.0710247561E+00  5.0828902636E-02  4.9578286308E-02  5.0102815570E-01
  1.1013377926E+04  2.8481727111E+00  7.0532858524E+00  5.2136332840E-02  5.0830152152E-02  5.0428211144E-01
  1.1110367893E+04  2.8784216515E+00  7.0358915895E+00  5.3465433367E-02  5.2101747114E-02  5.0751444782E-01
  1.1207357860E+04  2.9087970576E+00  7.0187946481E+00  5.4819751699E-02  5.3396384783E-02  5.1072520568E-01
  1.1304347826E+04  2.9393186542E+00  7.0020157413E+00  5.6205138284E-02  5.4719566649E-02  5.1391441894E-01
  1.1401337793E+04  2.9699718116E+00  6.9855243051E+00  5.7613202542E-02  5.6063272718E-02  5.1708209752E-01
  1.1498327759E+04  3.0007713886E+00  6.9693335199E+00  5.9044116942E-02  5.7427626763E-02  5.2022825462E-01
  1.1595317726E+04  3.0317019541E+00  6.9534133666E+00  6.0498053773E-02  5.8812737813E-02  5.2335290993E-01
  1.1692307692E+04  3.0627848440E+00  6.9377851003E+00  6.1975185145E-02  6.0218730863E-02  5.2645608934E-01
  1.1789297659E+04  3.0939920938E+00  6.9224040774E+00  6.3475682988E-02  6.1645706278E-02  5.2953782464E-01
  1.1886287625E+04  3.1253636366E+00  6.9073142355E+00  6.4999719058E-02  6.3093796545E-02  5.3259815326E-01
  1.1983277592E+04  3.1568464575E+00  6.8924421090E+00  6.6547464934E-02  6.4563086356E-02  5.3563710869E-01
  1.2080267559E+04  3.1885119998E+00  6.8778679926E+00  6.8119092022E-02  6.6053723364E-02  5.3865470771E-01
  1.2177257525E+04  3.2202688789E+00  6.8634763100E+00  6.9714771557E-02  6.7565768093E-02  5.4165097078E-01
  1.2274247492E+04  3.2522337725E+00  6.8493965133E+00  7.1334674602E-02  6.9099392606E-02  5.4462592433E-01
  1.2371237458E+04  3.2842627877E+00  6.8354584783E+00  7.2978972053E-02  7.0654623108E-02  5.4757960054E-01
  1.2468227425E+04  3.3165323999E+00  6.8218528154E+00  7.4647834635E-02  7.2231667061E-02  5.5051203709E-01
  1.2565217391E+04  3.3488653399E+00  6.8083793491E+00  7.6353643482E-02  7.3841945701E-02  5.5342327978E-01
  1.2662207358E+04  3.3814112899E+00  6.7951932571E+00  7.8090880402E-02  7.5480300285E-02  5.5631339127E-01
  1.2759197324E+04  3.4140561811E+00  6.7821689341E+00  7.9853888981E-02  7.7141304945E-02  5.5918239876E-01
  1.2856187291E+04  3.4468741203E+00  6.7693778392E+00  8.1642850335E-02  7.8825115062E-02  5.6203032722E-01
  1.2953177258E+04  3.4798374550E+00  6.7567868705E+00  8.3457945450E-02  8.0531820983E-02  5.6485720736E-01
  1.3050167224E+04  3.5129246662E+00  6.7443696270E+00  8.5299355190E-02  8.2261514028E-02  5.6766307540E-01
  1.3147157191E+04  3.5462130088E+00  6.7321971259E+00  8.7167260295E-02  8.4014353123E-02  5.7044797288E-01
  1.3244147157E+04  3.5795686376E+00  6.7201358232E+00  8.9061841383E-02  8.5790347482E-02  5.7321194639E-01
  1.3341137124E+04  3.6131861611E+00  6.7083653958E+00  9.0983278950E-02  8.7589740592E-02  5.7595504736E-01
  1.3438127090E+04  3.6468749043E+00  6.6967028750E+00  9.2931753371E-02  8.9412494371E-02  5.7867733189E-01
  1.3535117057E+04  3.6807596749E+00  6.6852589768E+00  9.4907444900E-02  9.1258802224E-02  5.8137886047E-01
  1.3632107023E+04  3.7147881864E+00  6.6739821367E+00  9.6910533675E-02  9.3128723846E-02  5.8405969786E-01
  1.3729096990E+04  3.7489357386E+00  6.6628466641E+00  9.8941719337E-02  9.5022815424E-02  5.8671991289E-01
  1.3826086957E+04  3.7833106941E+00  6.6519430569E+00  1.0100157220E-01  9.6941620265E-02  5.8935957552E-01
  1.3923076923E+04  3.8177572391E+00  6.6411333287E+00  1.0308940556E-01  9.8884303839E-02  5.9197872941E-01
  1.4020066890E+04  3.8524440410E+00  6.6305564461E+00  1.0520539962E-01  1.0085110336E-01  5.9457741310E-01
  1.4117056856E+04  3.8872453558E+00  6.6201034781E+00  1.0734973444E-01  1.0284200413E-01  5.9715567044E-01
  1.4214046823E+04  3.9221892237E+00  6.6097943922E+00  1.0952258997E-01  1.0485712088E-01  5.9971355033E-01
  1.4311036789E+04  3.9573520588E+00  6.5996871598E+00  1.1172414605E-01  1.0689661481E-01  6.0225110654E-01
  1.4408026756E+04  3.9925894339E+00  6.5896634954E+00  1.1395458242E-01  1.0896044037E-01  6.0476839752E-01
  1.4505016722E+04  4.0280777216E+00  6.5798581848E+00  1.1621407868E-01  1.1104885264E-01  6.0726548616E-01
  1.4602006689E+04  4.0636850915E+00  6.5701656591E+00  1.1850281434E-01  1.1316181219E-01  6.0974243964E-01
  1.4698996656E+04  4.0994220570E+00  6.5605914585E+00  1.2082096881E-01  1.1529941213E-01  6.1219932922E-01
  1.4795986622E+04  4.1354062364E+00  6.5512202669E+00  1.2316872136E-01  1.1746185705E-01  6.1463623006E-01
  1.4892976589E+04  4.1714680724E+00  6.5419235596E+00  1.2554625118E-01  1.1964905450E-01  6.1705321778E-01
  1.4989966555E+04  4.2077516743E+00  6.5328037102E+00  1.2795373734E-01  1.2186123668E-01  6.1945035204E-01
  1.5086956522E+04  4.2441985603E+00  6.5238153595E+00  1.3041727941E-01  1.2412190144E-01  6.2182769059E-01
  1.5183946488E+04  4.2807245516E+00  6.5148968559E+00  1.3291500041E-01  1.2641098402E-01  6.2418529587E-01
  1.5280936455E+04  4.3175543940E+00  6.5062046684E+00  1.3544414815E-01  1.2872615405E-01  6.2652323478E-01
  1.5377926421E+04  4.3544701315E+00  6.4975824668E+00  1.3800491397E-01  1.3106724619E-01  6.2884157844E-01
  1.5474916388E+04  4.3915301180E+00  6.4890701591E+00  1.4059748915E-01  1.3343440726E-01  6.3114040201E-01
  1.5571906355E+04  4.4288364271E+00  6.4807361929E+00  1.4322206491E-01  1.3582784286E-01  6.3341978454E-01
  1.5668896321E+04  4.4662250611E+00  6.4724645781E+00  1.4587883240E-01  1.3824742992E-01  6.3567980877E-01
  1.5765886288E+04  4.5038170545E+00  6.4643378706E+00  1.4856798269E-01  1.4069339672E-01  6.3792056096E-01
  1.5862876254E+04  4.5415987011E+00  6.4563437468E+00  1.5128970682E-01  1.4316580402E-01  6.4014213063E-01
  1.5959866221E+04  4.5794640885E+00  6.4484081483E+00  1.5404419574E-01  1.4566458463E-01  6.4234460229E-01
  1.6056856187E+04  4.6175807885E+00  6.4406441907E+00  1.5683164034E-01  1.4819003747E-01  6.4452804964E-01
  1.6153846154E+04  4.6558414809E+00  6.4329759987E+00  1.5965223144E-01  1.5074208911E-01  6.4669254914E-01
  1.6250836120E+04  4.6941873140E+00  6.4253627580E+00  1.6250615983E-01  1.5332072262E-01  6.4883818112E-01
  1.6347826087E+04  4.7328211494E+00  6.4179398783E+00  1.6539361619E-01  1.5592629989E-01  6.5096502962E-01
  1.6444816054E+04  4.7715644331E+00  6.4105845683E+00  1.6831479117E-01  1.5855862895E-01  6.5307318226E-01
  1.6541806020E+04  4.8103963355E+00  6.4032822662E+00  1.7126987536E-01  1.6121773825E-01  6.5516273000E-01
  1.6638795987E+04  4.8495373874E+00  6.3961784808E+00  1.7425905926E-01  1.6390403252E-01  6.5723376702E-01
  1.6735785953E+04  4.8887666474E+00  6.3891237966E+00  1.7728253334E-01  1.6661723213E-01  6.5928639051E-01
  1.6832775920E+04  4.9280992890E+00  6.3821278220E+00  1.8034048798E-01  1.6935741582E-01  6.6132069985E-01
  1.6929765886E+04  4.9677281950E+00  6.3753161197E+00  1.8343311354E-01  1.7212496068E-01  6.6333678138E-01
  1.7026755853E+04  5.0074466580E+00  6.3685505381E+00  1.8656060028E-01  1.7491958362E-01  6.6533472266E-01
  1.7123745819E+04  5.0472718834E+00  6.3618419461E+00  1.8972313841E-01  1.7774136378E-01  6.6731461764E-01
  1.7220735786E+04  5.0873917286E+00  6.3553112959E+00  1.9292091809E-01  1.8059068506E-01  6.6927656335E-01
  1.7317725753E+04  5.1276024646E+00  6.3488239718E+00  1.9615412943E-01  1.8346724350E-01  6.7122065970E-01
  1.7414715719E+04  5.1679119154E+00  6.3423847000E+00  1.9942296245E-01  1.8637109788E-01  6.7314700936E-01
  1.7511705686E+04  5.2085256342E+00  6.3361247087E+00  2.0273068919E-01  1.8930536792E-01  6.7505571757E-01
  1.7608695652E+04  5.2492315629E+00  6.3299054210E+00  2.0609726692E-01  1.9228690141E-01  6.7694689202E-01
  1.7705685619E+04  5.2900294011E+00  6.3237263500E+00  2.0950074593E-01  1.9529639680E-01  6.7882064270E-01
  1.7802675585E+04  5.3311271135E+00  6.3177190572E+00  2.1294132448E-01  1.9833431301E-01  6.8067825070E-01
  1.7899665552E+04  5.3723310456E+00  6.3117581300E+00  2.1641920075E-01  2.0140031599E-01  6.8252141407E-01
  1.7996655518E+04  5.4136281961E+00  6.3058349940E+00  2.1993457292E-01  2.0449441800E-01  6.8435019435E-01
  1.8093645485E+04  5.4551929967E+00  6.3000588552E+00  2.2348763913E-01  2.0761702668E-01  6.8616464484E-01
  1.8190635452E+04  5.4968976194E+00  6.2943471344E+00  2.2707859747E-01  2.1076791902E-01  6.8796482125E-01
  1.8287625418E+04  5.5386967553E+00  6.2886709240E+00  2.3070764602E-01  2.1394703308E-01  6.8975078149E-01
  1.8384615385E+04  5.5807197100E+00  6.2831103511E+00  2.3437498281E-01  2.1715469169E-01  6.9152258568E-01
  1.8481605351E+04  5.6229275641E+00  6.2776391877E+00  2.3808080583E-01  2.2039084999E-01  6.9328029598E-01
  1.8578595318E+04  5.6652312118E+00  6.2722013882E+00  2.4182531306E-01  2.2365533821E-01  6.9502397651E-01
  1.8675585284E+04  5.7077032482E+00  6.2668414463E+00  2.4560870244E-01  2.2694835575E-01  6.9675369329E-01
  1.8772575251E+04  5.7504167291E+00  6.2616026613E+00  2.4943484137E-01  2.3027324052E-01  6.9846951412E-01
  1.8869565217E+04  5.7932272700E+00  6.2563952189E+00  2.5330224154E-01  2.3362822461E-01  7.0017150850E-01
  1.8966555184E+04  5.8361391954E+00  6.2512215818E+00  2.5720925786E-01  2.3701176553E-01  7.0185974757E-01
  1.9063545151E+04  5.8793605549E+00  6.2462074345E+00  2.6115608962E-01  2.4042441786E-01  7.0353430398E-01
  1.9160535117E+04  5.9226802262E+00  6.2412227245E+00  2.6514293610E-01  2.4386567525E-01  7.0519525187E-01
  1.9257525084E+04  5.9660979335E+00  6.2362671312E+00  2.6916999652E-01  2.4733555323E-01  7.0684266673E-01
  1.9354515050E+04  6.0097540941E+00  6.2314247913E+00  2.7323747009E-01  2.5083444740E-01  7.0847662537E-01
  1.9451505017E+04  6.0535849908E+00  6.2266555892E+00  2.7734555598E-01  2.5436221327E-01  7.1009720538E-01
  1.9548494983E+04  6.0975151651E+00  6.2219137315E+00  2.8149445335E-01  2.5791866048E-01  7.1170447563E-01
  1.9645484950E+04  6.1415920338E+00  6.2172273270E+00  2.8568436131E-01  2.6150393423E-01  7.1329849696E-01
  1.9742474916E+04  6.1859361098E+00  6.2126667822E+00  2.8991547897E-01  2.6511839958E-01  7.1487933180E-01
  1.9839464883E+04  6.2303806906E+00  6.2081319082E+00  2.9418800537E-01  2.6876159233E-01  7.1644704446E-01
  1.9936454849E+04  6.2749255111E+00  6.2036224360E+00  2.9850213955E-01  2.7243351586E-01  7.1800170111E-01
  2.0033444816E+04  6.3197281846E+00  6.1992304408E+00  3.0286789584E-01  2.7614281586E-01  7.1954336962E-01
  2.0130434783E+04  6.3646895172E+00  6.1948960984E+00  3.0729477752E-01  2.7989687647E-01  7.2107211952E-01
  2.0227424749E+04  6.4097523111E+00  6.1905855978E+00  3.1176456959E-01  2.8368018150E-01  7.2258802189E-01
  2.0324414716E+04  6.4549567249E+00  6.1863217322E+00  3.1627747855E-01  2.8749285923E-01  7.2409114928E-01
  2.0421404682E+04  6.5004400908E+00  6.1821815558E+00  3.2083371092E-01  2.9133536140E-01  7.2558157565E-01
  2.0518394649E+04  6.5460261581E+00  6.1780637476E+00  3.2543347317E-01  2.9520712606E-01  7.2705937625E-01
  2.0615384615E+04  6.5917146715E+00  6.1739680817E+00  3.3007697181E-01  2.9910814632E-01  7.2852462758E-01
  2.0712374582E+04  6.6376331360E+00  6.1699644022E+00  3.3476441330E-01  3.0303884865E-01  7.2997740731E-01
  2.0809364548E+04  6.6837488309E+00  6.1660332350E+00  3.3949600413E-01  3.0699912979E-01  7.3141779419E-01
  2.0906354515E+04  6.7299682441E+00  6.1621228352E+00  3.4427195075E-01  3.1098866461E-01  7.3284586800E-01
  2.1003344482E+04  6.7762911263E+00  6.1582329976E+00  3.4909245963E-01  3.1500743904E-01  7.3426170906E-01
  2.1100334448E+04  6.8229216016E+00  6.1544714272E+00  3.5395773722E-01  3.1905617394E-01  7.3566539230E-01
  2.1197324415E+04  6.8696783110E+00  6.1507406096E+00  3.5886798996E-01  3.2313422134E-01  7.3705698947E-01
  2.1294314381E+04  6.9165397934E+00  6.1470290698E+00  3.6382342428E-01  3.2724148656E-01  7.3843657365E-01
  2.1391304348E+04  6.9635449309E+00  6.1433566679E+00  3.6882424663E-01  3.3137809530E-01  7.3980421914E-01
  2.1488294314E+04  7.0108453420E+00  6.1398000179E+00  3.7387066342E-01  3.3554460933E-01  7.4116000141E-01
  2.1585284281E+04  7.0582518583E+00  6.1362614303E+00  3.7896288108E-01  3.3974030489E-01  7.4250399699E-01
  2.1682274247E+04  7.1057642396E+00  6.1327407330E+00  3.8410110600E-01  3.4396515559E-01  7.4383628344E-01
  2.1779264214E+04  7.1534689638E+00  6.1292805738E+00  3.8928554460E-01  3.4821947677E-01  7.4515693925E-01
  2.1876254181E+04  7.2014269537E+00  6.1259098418E+00  3.9451640326E-01  3.5250349856E-01  7.4646604378E-01
  2.1973244147E+04  7.2494921724E+00  6.1225558625E+00  3.9979388839E-01  3.5681661968E-01  7.4776367723E-01
  2.2070234114E+04  7.2976643848E+00  6.1192184794E+00  4.0511820635E-01  3.6115880669E-01  7.4904992051E-01
  2.2167224080E+04  7.3460638373E+00  6.1159548989E+00  4.1048956354E-01  3.6553052744E-01  7.5032485523E-01
  2.2264214047E+04  7.3946883634E+00  6.1127628344E+00  4.1590816630E-01  3.6993175725E-01  7.5158856363E-01
  2.2361204013E+04  7.4434212787E+00  6.1095863006E+00  4.2137444963E-01  3.7436215833E-01  7.5284112851E-01
  2.2458193980E+04  7.4922623531E+00  6.1064251549E+00  4.2693264113E-01  3.7885635456E-01  7.5408263281E-01
  2.2555183946E+04  7.5413506668E+00  6.1033432431E+00  4.3253966905E-01  3.8338067085E-01  7.5531315491E-01
  2.2652173913E+04  7.5906507814E+00  6.1003230267E+00  4.3819574907E-01  3.8793493210E-01  7.5653277085E-01
  2.2749163880E+04  7.6400604820E+00  6.0973171993E+00  4.4390109689E-01  3.9251865150E-01  7.5774155748E-01
  2.2846153846E+04  7.6895795435E+00  6.0943256316E+00  4.4965592821E-01  3.9713178267E-01  7.5893959238E-01
  2.2943143813E+04  7.7393498076E+00  6.0914111783E+00  4.5546045877E-01  4.0177493415E-01  7.6012695377E-01
  2.3040133779E+04  7.7893346538E+00  6.0885563888E+00  4.6131490431E-01  4.0644791119E-01  7.6130372050E-01
  2.3137123746E+04  7.8394303192E+00  6.0857149211E+00  4.6721948057E-01  4.1115018985E-01  7.6246997199E-01
  2.3234113712E+04  7.8896365834E+00  6.0828866576E+00  4.7317440335E-01  4.1588171667E-01  7.6362578813E-01
  2.3331103679E+04  7.9400808080E+00  6.0801261027E+00  4.7917988841E-01  4.2064305575E-01  7.6477124926E-01
  2.3428093645E+04  7.9907596154E+00  6.0774306877E+00  4.8523615158E-01  4.2543415825E-01  7.6590643615E-01
  2.3525083612E+04  8.0415505113E+00  6.0747475960E+00  4.9134340866E-01  4.3025437951E-01  7.6703142988E-01
  2.3622073579E+04  8.0924532798E+00  6.0720767207E+00  4.9750187548E-01  4.3510365914E-01  7.6814631185E-01
  2.3719063545E+04  8.1435623600E+00  6.0694571081E+00  5.0371176791E-01  4.3998241688E-01  7.6925116369E-01
  2.3816053512E+04  8.1949444407E+00  6.0669153573E+00  5.0997330180E-01  4.4489095169E-01  7.7034606701E-01
  2.3913043478E+04  8.2464399149E+00  6.0643849946E+00  5.1628669302E-01  4.4982839663E-01  7.7143109981E-01
  2.4010033445E+04  8.2980485716E+00  6.0618659232E+00  5.2265215748E-01  4.5479468448E-01  7.7250633790E-01
  2.4107023411E+04  8.3498122510E+00  6.0593748594E+00  5.2906991108E-01  4.5978997044E-01  7.7357185754E-01
  2.4204013378E+04  8.4019069951E+00  6.0569813797E+00  5.3554016975E-01  4.6481514351E-01  7.7462773533E-01
  2.4301003344E+04  8.4541164738E+00  6.0545984117E+00  5.4206314941E-01  4.6986899280E-01  7.7567404822E-01
  2.4397993311E+04  8.5064404802E+00  6.0522258676E+00  5.4863906602E-01  4.7495144439E-01  7.7671087345E-01
  2.4494983278E+04  8.5588788089E+00  6.0498636606E+00  5.5526813555E-01  4.8006242256E-01  7.7773828850E-01
  2.4591973244E+04  8.6116641857E+00  6.0476011769E+00  5.6195057398E-01  4.8520316509E-01  7.7875637105E-01
  2.4688963211E+04  8.6645971684E+00  6.0453605597E+00  5.6868659730E-01  4.9037250099E-01  7.7976519894E-01
  2.4785953177E+04  8.7176460598E+00  6.0431295528E+00  5.7547642152E-01  4.9557017407E-01  7.8076485013E-01
  2.4882943144E+04  8.7708106588E+00  6.0409080775E+00  5.8232026267E-01  5.0079610209E-01  7.8175540266E-01
  2.4979933110E+04  8.8242305688E+00  6.0387484948E+00  5.8921833677E-01  5.0605102907E-01  7.8273693462E-01
  2.5076923077E+04  8.8778940514E+00  6.0366454231E+00  5.9620614351E-01  5.1136078491E-01  7.8370952408E-01
  2.5173913043E+04  8.9316748380E+00  6.0345511979E+00  6.0325861009E-01  5.1670578072E-01  7.8467324700E-01
  2.5270903010E+04  8.9855727318E+00  6.0324657482E+00  6.1036684658E-01  5.2207920507E-01  7.8562817651E-01
  2.5367892977E+04  9.0396111531E+00  6.0303982269E+00  6.1753107683E-01  5.2748111829E-01  7.8657438577E-01
  2.5464882943E+04  9.0939948892E+00  6.0284279409E+00  6.2475152476E-01  5.3291275872E-01  7.8751194804E-01
  2.5561872910E+04  9.1484971985E+00  6.0264657850E+00  6.3202841428E-01  5.3837260115E-01  7.8844093673E-01
  2.5658862876E+04  9.2031178883E+00  6.0245116951E+00  6.3936196935E-01  5.4386055033E-01  7.8936142533E-01
  2.5755852843E+04  9.2578567667E+00  6.0225656077E+00  6.4675241396E-01  5.4937650923E-01  7.9027348734E-01
  2.5852842809E+04  9.3128482809E+00  6.0206837842E+00  6.5419997213E-01  5.5492133558E-01  7.9117719630E-01
  2.5949832776E+04  9.3680538259E+00  6.0188491455E+00  6.6170486792E-01  5.6049468543E-01  7.9207262571E-01
  2.6046822742E+04  9.4233788404E+00  6.0170219070E+00  6.6926732540E-01  5.6609579437E-01  7.9295984902E-01
  2.6143812709E+04  9.4788231366E+00  6.0152020116E+00  6.7688756870E-01  5.7172455919E-01  7.9383893960E-01
  2.6240802676E+04  9.5343869636E+00  6.0133896016E+00  6.8456582195E-01  5.7738087838E-01  7.9470997070E-01
  2.6337792642E+04  9.5902763375E+00  6.0116781585E+00  6.9230230933E-01  5.8306628754E-01  7.9557301456E-01
  2.6434782609E+04  9.6462860843E+00  6.0099734907E+00  7.0009725504E-01  5.8877908290E-01  7.9642813973E-01
  2.6531772575E+04  9.7024160203E+00  6.0082755467E+00  7.0795088333E-01  5.9451915522E-01  7.9727541592E-01
  2.6628762542E+04  9.7586659625E+00  6.0065842755E+00  7.1586341846E-01  6.0028639360E-01  7.9811491298E-01
  2.6725752508E+04  9.8150977772E+00  6.0049308035E+00  7.2383508472E-01  6.0608123966E-01  7.9894670065E-01
  2.6822742475E+04  9.8717715886E+00  6.0033446386E+00  7.3186610645E-01  6.1190414236E-01  7.9977084859E-01
  2.6919732441E+04  9.9285663102E+00  6.0017646156E+00  7.3995670799E-01  6.1775391871E-01  8.0058742617E-01
  2.7016722408E+04  9.9854817628E+00  6.0001906887E+00  7.4810711374E-01  6.2363045202E-01  8.0139650145E-01
  2.7113712375E+04  1.0042517768E+01  5.9986228127E+00  7.5631754811E-01  6.2953362402E-01  8.0219814225E-01
  2.7210702341E+04  1.0099769210E+01  5.9971145607E+00  7.6458823555E-01  6.3546429321E-01  8.0299232869E-01
  2.7307692308E+04  1.0157206815E+01  5.9956486249E+00  7.7291940053E-01  6.4142206779E-01  8.0377957722E-01
  2.7404682274E+04  1.0214765689E+01  5.9941882431E+00  7.8131134284E-01  6.4740621845E-01  8.0456250553E-01
  2.7501672241E+04  1.0272445657E+01  5.9927333744E+00  7.8976453356E-01  6.5341678971E-01  8.0534217423E-01
  2.7598662207E+04  1.0330246547E+01  5.9912839789E+00  7.9827888245E-01  6.5945343941E-01  8.0611859582E-01
  2.7695652174E+04  1.0388272668E+01  5.9899079235E+00  8.0685461417E-01  6.6551730784E-01  8.0689178583E-01
  2.7792642140E+04  1.0446451856E+01  5.9885574690E+00  8.1549195339E-01  6.7160742568E-01  8.0766176003E-01
  2.7889632107E+04  1.0504752493E+01  5.9872120220E+00  8.2419112480E-01  6.7772328666E-01  8.0842853414E-01
  2.7986622074E+04  1.0563174409E+01  5.9858715466E+00  8.3295235315E-01  6.8386476021E-01  8.0919212377E-01
  2.8083612040E+04  1.0621717434E+01  5.9845360072E+00  8.4177586319E-01  6.9003171433E-01  8.0995254447E-01
  2.8180602007E+04  1.0680477152E+01  5.9832797708E+00  8.5066187972E-01  6.9622542988E-01  8.1070981173E-01
  2.8277591973E+04  1.0739374178E+01  5.9820403278E+00  8.5961062755E-01  7.0244463546E-01  8.1146394093E-01
  2.8374581940E+04  1.0798392653E+01  5.9808053842E+00  8.6862233154E-01  7.0868896629E-01  8.1221494740E-01
  2.8471571906E+04  1.0857532413E+01  5.9795749082E+00  8.7769721656E-01  7.1495828540E-01  8.1296284637E-01
  2.8568561873E+04  1.0916793291E+01  5.9783488687E+00  8.8683550750E-01  7.2125245448E-01  8.1370765303E-01
  2.8665551839E+04  1.0976249845E+01  5.9772006756E+00  8.9603742931E-01  7.2757275033E-01  8.1444938245E-01
  2.8762541806E+04  1.1035839463E+01  5.9760680314E+00  9.0530320694E-01  7.3391788153E-01  8.1518804966E-01
  2.8859531773E+04  1.1095550353E+01  5.9749394136E+00  9.1463306539E-01  7.4028748837E-01  8.1592366959E-01
  2.8956521739E+04  1.1155382353E+01  5.9738147946E+00  9.2402722965E-01  7.4668142788E-01  8.1665625711E-01
  2.9053511706E+04  1.1215335302E+01  5.9726941469E+00  9.3348592479E-01  7.5309955580E-01  8.1738582701E-01
  2.9150501672E+04  1.1275456718E+01  5.9716427823E+00  9.4300937587E-01  7.5954299997E-01  8.1811239401E-01
  2.9247491639E+04  1.1335712222E+01  5.9706129621E+00  9.5259780798E-01  7.6601073148E-01  8.1883597273E-01
  2.9344481605E+04  1.1396088643E+01  5.9695867282E+00  9.6225144625E-01  7.7250225915E-01  8.1955657776E-01
  2.9441471572E+04  1.1456585820E+01  5.9685640560E+00  9.7197051584E-01  7.7901743438E-01  8.2027422357E-01
  2.9538461538E+04  1.1517203598E+01  5.9675449217E+00  9.8175524193E-01  7.8555610737E-01  8.2098892459E-01
  2.9635451505E+04  1.1577963175E+01  5.9665796948E+00  9.9160584971E-01  7.9211911526E-01  8.2170069515E-01
  2.9732441472E+04  1.1638856474E+01  5.9656489448E+00  1.0015225644E+00  7.9870596791E-01  8.2240954954E-01
  2.9829431438E+04  1.1699870156E+01  5.9647213704E+00  1.0115056114E+00  8.0531590926E-01  8.2311550194E-01
  2.9926421405E+04  1.1761004064E+01  5.9637969507E+00  1.0215552158E+00  8.1194878549E-01  8.2381856647E-01
  3.0023411371E+04  1.1822258047E+01  5.9628756648E+00  1.0316915305E+00  8.1861698800E-01  8.2451875720E-01
  3.0120401338E+04  1.1883639009E+01  5.9619863602E+00  1.0419583328E+00  8.2534814673E-01  8.2521608808E-01
  3.0217391304E+04  1.1945152339E+01  5.9611510908E+00  1.0522937460E+00  8.3210334823E-01  8.2591057304E-01
  3.0314381271E+04  1.2006785425E+01  5.9603186146E+00  1.0626980056E+00  8.3888140690E-01  8.2660222590E-01
  3.0411371237E+04  1.2068538114E+01  5.9594889133E+00  1.0731713471E+00  8.4568216122E-01  8.2729106042E-01
  3.0508361204E+04  1.2130410257E+01  5.9586619688E+00  1.0837140062E+00  8.5250544855E-01  8.2797709029E-01
  3.0605351171E+04  1.2192402155E+01  5.9578388319E+00  1.0943262185E+00  8.5935112965E-01  8.2866032913E-01
  3.0702341137E+04  1.2254545961E+01  5.9570955492E+00  1.1050082198E+00  8.6622081059E-01  8.2934079049E-01
  3.0799331104E+04  1.2316809004E+01  5.9563547032E+00  1.1157602459E+00  8.7311258126E-01  8.3001848785E-01
  3.0896321070E+04  1.2379191138E+01  5.9556162783E+00  1.1265825325E+00  8.8002627550E-01  8.3069343461E-01
  3.0993311037E+04  1.2441692215E+01  5.9548802589E+00  1.1374753155E+00  8.8696172612E-01  8.3136564410E-01
  3.1090301003E+04  1.2504312089E+01  5.9541466297E+00  1.1484388308E+00  8.9391876496E-01  8.3203512960E-01
  3.1187290970E+04  1.2567080130E+01  5.9534593514E+00  1.1594733143E+00  9.0089838157E-01  8.3270190430E-01
