#[MATERIAL DEFINITION FOR MC-GPU: interaction mean free path and sampling data from PENELOPE 2006]
#[MATERIAL NAME]
# MATERIAL15                                                    
#[NOMINAL DENSITY (g/cm^3)]
#   1.00000000
#[NUMBER OF DATA VALUES]
#   1495
#[MEAN FREE PATHS (cm) (ie, average distance between interactions)]
#[Energy (eV)     | Rayleigh        | Compton         | Photoelectric   | TOTAL (+pair prod) (cm) | Rayleigh: max cumul prob F^2]
  5.0000000000E+03  1.4660516527E+00  8.6583339754E+00  8.1478962643E-03  8.0952869295E-03  2.7145247466E-01
  5.0969899666E+03  1.4941538965E+00  8.5828290659E+00  8.5868018863E-03  8.5292516514E-03  2.7634330917E-01
  5.1939799331E+03  1.5224511021E+00  8.5104177342E+00  9.0403062807E-03  8.9774617322E-03  2.8118450181E-01
  5.2909698997E+03  1.5509396748E+00  8.4409205787E+00  9.5086041892E-03  9.4400940700E-03  2.8597782701E-01
  5.3879598662E+03  1.5796159423E+00  8.3741709633E+00  9.9918891503E-03  9.9173237922E-03  2.9072497207E-01
  5.4849498328E+03  1.6084761676E+00  8.3100139125E+00  1.0490476086E-02  1.0409444945E-02  2.9542752899E-01
  5.5819397993E+03  1.6375165621E+00  8.2483051182E+00  1.1005912057E-02  1.0917963237E-02  3.0008706233E-01
  5.6789297659E+03  1.6667332987E+00  8.1889100490E+00  1.1537024139E-02  1.1441705609E-02  3.0470509966E-01
  5.7759197324E+03  1.6961225234E+00  8.1317031461E+00  1.2084004296E-02  1.1980842961E-02  3.0928304053E-01
  5.8729096990E+03  1.7256803683E+00  8.0765670994E+00  1.2647043411E-02  1.2535544478E-02  3.1382221739E-01
  5.9698996656E+03  1.7554029677E+00  8.0233921857E+00  1.3226331309E-02  1.3105977644E-02  3.1832394484E-01
  6.0668896321E+03  1.7852867222E+00  7.9720753403E+00  1.3823387999E-02  1.3693614609E-02  3.2278945922E-01
  6.1638795987E+03  1.8153287524E+00  7.9225190823E+00  1.4437778864E-02  1.4298006828E-02  3.2721988164E-01
  6.2608695652E+03  1.8455268509E+00  7.8746312004E+00  1.5071329360E-02  1.4920921702E-02  3.3161631309E-01
  6.3578595318E+03  1.8758788367E+00  7.8283252057E+00  1.5728746112E-02  1.5566944164E-02  3.3597986136E-01
  6.4548494983E+03  1.9063914226E+00  7.7835586151E+00  1.6404133278E-02  1.6230269036E-02  3.4031146750E-01
  6.5518394649E+03  1.9370646331E+00  7.7402624668E+00  1.7100669181E-02  1.6913981961E-02  3.4461196592E-01
  6.6488294314E+03  1.9678871173E+00  7.6983247299E+00  1.7816919375E-02  1.7616649408E-02  3.4888218875E-01
  6.7458193980E+03  1.9988565287E+00  7.6576776137E+00  1.8552052388E-02  1.8337430983E-02  3.5312296548E-01
  6.8428093645E+03  2.0299705096E+00  7.6182573840E+00  1.9306280471E-02  1.9076507122E-02  3.5733512277E-01
  6.9397993311E+03  2.0612266984E+00  7.5800040862E+00  2.0079815107E-02  1.9834056612E-02  3.6151944753E-01
  7.0367892977E+03  2.0926237429E+00  7.5428651403E+00  2.0874348239E-02  2.0611700891E-02  3.6567654131E-01
  7.1337792642E+03  2.1241899184E+00  7.5068995924E+00  2.1691196637E-02  2.1410694780E-02  3.6980695777E-01
  7.2307692308E+03  2.1558945332E+00  7.4719423392E+00  2.2528224076E-02  2.2228919735E-02  3.7391125404E-01
  7.3277591973E+03  2.1877359124E+00  7.4379454199E+00  2.3385644694E-02  2.3066552896E-02  3.7798998986E-01
  7.4247491639E+03  2.2197123134E+00  7.4048636723E+00  2.4263671926E-02  2.3923769718E-02  3.8204372665E-01
  7.5217391304E+03  2.2518403533E+00  7.3727147408E+00  2.5162518516E-02  2.4800746889E-02  3.8607295948E-01
  7.6187290970E+03  2.2841251834E+00  7.3414747983E+00  2.6082396526E-02  2.5697658038E-02  3.9007806044E-01
  7.7157190635E+03  2.3165421138E+00  7.3110288180E+00  2.7023517350E-02  2.6614670180E-02  3.9405939584E-01
  7.8127090301E+03  2.3490891612E+00  7.2813408585E+00  2.7986091719E-02  2.7551952077E-02  3.9801733749E-01
  7.9096989967E+03  2.3817940302E+00  7.2524633563E+00  2.8970329716E-02  2.8509676375E-02  4.0195226206E-01
  8.0066889632E+03  2.4146479896E+00  7.2243372019E+00  2.9977615110E-02  2.9489144179E-02  4.0586452629E-01
  8.1036789298E+03  2.4476288155E+00  7.1968711682E+00  3.1023364176E-02  3.0505216642E-02  4.0975438571E-01
  8.2006688963E+03  2.4807440389E+00  7.1700621273E+00  3.2092408166E-02  3.1543162973E-02  4.1362207653E-01
  8.2976588629E+03  2.5140332678E+00  7.1439855334E+00  3.3184978453E-02  3.2603172894E-02  4.1746784187E-01
  8.3946488294E+03  2.5474471014E+00  7.1184859991E+00  3.4301305890E-02  3.3685415345E-02  4.2129193104E-01
  8.4916387960E+03  2.5809853938E+00  7.0935444336E+00  3.5441620821E-02  3.4790067631E-02  4.2509457837E-01
  8.5886287625E+03  2.6147106907E+00  7.0692859891E+00  3.6606153087E-02  3.5917320850E-02  4.2887594370E-01
  8.6856187291E+03  2.6485577722E+00  7.0455329770E+00  3.7795132034E-02  3.7067333805E-02  4.3263617616E-01
  8.7826086957E+03  2.6825324205E+00  7.0222829719E+00  3.9008786514E-02  3.8240280131E-02  4.3637543215E-01
  8.8795986622E+03  2.7166931679E+00  6.9996413939E+00  4.0247344897E-02  3.9436346514E-02  4.4009387431E-01
  8.9765886288E+03  2.7509721277E+00  6.9774432693E+00  4.1511035074E-02  4.0655683939E-02  4.4379163809E-01
  9.0735785953E+03  2.7853962273E+00  6.9557296467E+00  4.2806665200E-02  4.1904773537E-02  4.4746881216E-01
  9.1705685619E+03  2.8199906473E+00  6.9345297005E+00  4.4130362923E-02  4.3179846057E-02  4.5112548831E-01
  9.2675585284E+03  2.8546992921E+00  6.9137198164E+00  4.5480322567E-02  4.4479097657E-02  4.5476176551E-01
  9.3645484950E+03  2.8895877895E+00  6.8934068249E+00  4.6856779448E-02  4.5802718551E-02  4.5837774207E-01
  9.4615384615E+03  2.9246144313E+00  6.8734969013E+00  4.8259968464E-02  4.7150863387E-02  4.6197347601E-01
  9.5585284281E+03  2.9597721864E+00  6.8539667332E+00  4.9690124094E-02  4.8523695459E-02  4.6554901502E-01
  9.6555183946E+03  2.9951199277E+00  6.8348989080E+00  5.1147480410E-02  4.9921399765E-02  4.6910441423E-01
  9.7525083612E+03  3.0305755957E+00  6.8161460401E+00  5.2632271074E-02  5.1344109360E-02  4.7263973971E-01
  9.8494983278E+03  3.0662238524E+00  6.7978300666E+00  5.4144729349E-02  5.2792016200E-02  4.7615505125E-01
  9.9464882943E+03  3.1020016537E+00  6.7798391872E+00  5.5685088101E-02  5.4265255320E-02  4.7965034971E-01
  1.0043478261E+04  3.1379340086E+00  6.7622014927E+00  5.7260478584E-02  5.5770537723E-02  4.8312563737E-01
  1.0140468227E+04  3.1740364298E+00  6.7449257640E+00  5.8873244565E-02  5.7310004885E-02  4.8658092434E-01
  1.0237458194E+04  3.2102586485E+00  6.7279325862E+00  6.0515336333E-02  5.8875921491E-02  4.9001622805E-01
  1.0334448161E+04  3.2466886361E+00  6.7113305769E+00  6.2186999269E-02  6.0468487947E-02  4.9343157290E-01
  1.0431438127E+04  3.2832152234E+00  6.6949622652E+00  6.3888478428E-02  6.2087814533E-02  4.9682698987E-01
  1.0528428094E+04  3.3199674701E+00  6.6789855388E+00  6.5620018536E-02  6.3734119093E-02  5.0020251236E-01
  1.0625418060E+04  3.3568217293E+00  6.6632336192E+00  6.7381863998E-02  6.5407499339E-02  5.0355813232E-01
  1.0722408027E+04  3.3938818230E+00  6.6478269841E+00  6.9174258902E-02  6.7108160282E-02  5.0689382289E-01
  1.0819397993E+04  3.4310658219E+00  6.6326571489E+00  7.0997447019E-02  6.8836213087E-02  5.1020956542E-01
  1.0916387960E+04  3.4684402253E+00  6.6177952178E+00  7.2851671807E-02  7.0591842668E-02  5.1350534865E-01
  1.1013377926E+04  3.5059556072E+00  6.6031752481E+00  7.4737176414E-02  7.2375171094E-02  5.1678116832E-01
  1.1110367893E+04  3.5436508304E+00  6.5888342024E+00  7.6654203683E-02  7.4186366266E-02  5.2003702683E-01
  1.1207357860E+04  3.5814987993E+00  6.5747338086E+00  7.8607725593E-02  7.6029981672E-02  5.2327293295E-01
  1.1304347826E+04  3.6195213973E+00  6.5608912756E+00  8.0605937885E-02  7.7913587187E-02  5.2648888636E-01
  1.1401337793E+04  3.6577027035E+00  6.5472819516E+00  8.2637127949E-02  7.9826113305E-02  5.2968485819E-01
  1.1498327759E+04  3.6960592739E+00  6.5339168936E+00  8.4701550403E-02  8.1767717839E-02  5.3286082325E-01
  1.1595317726E+04  3.7345741986E+00  6.5207717848E+00  8.6799459617E-02  8.3738535209E-02  5.3601676344E-01
  1.1692307692E+04  3.7732713794E+00  6.5078643982E+00  8.8931109717E-02  8.5738724521E-02  5.3915266746E-01
  1.1789297659E+04  3.8121197199E+00  6.4951581813E+00  9.1096754587E-02  8.7768405754E-02  5.4226853052E-01
  1.1886287625E+04  3.8511641871E+00  6.4826898046E+00  9.3296647868E-02  8.9827749280E-02  5.4536435409E-01
  1.1983277592E+04  3.8903452415E+00  6.4703985780E+00  9.5531042966E-02  9.1916849414E-02  5.4844013459E-01
  1.2080267559E+04  3.9297437066E+00  6.4583516087E+00  9.7800193047E-02  9.4035900122E-02  5.5149584936E-01
  1.2177257525E+04  3.9692562583E+00  6.4464527922E+00  1.0010435104E-01  9.6184956338E-02  5.5453148015E-01
  1.2274247492E+04  4.0090154660E+00  6.4348106099E+00  1.0244376966E-01  9.8364250583E-02  5.5754701537E-01
  1.2371237458E+04  4.0488577685E+00  6.4232828539E+00  1.0481870136E-01  1.0057378191E-01  5.6054244985E-01
  1.2468227425E+04  4.0889845069E+00  6.4120297683E+00  1.0722939839E-01  1.0281383931E-01  5.6351778458E-01
  1.2565217391E+04  4.1291933676E+00  6.4008833680E+00  1.0969300090E-01  1.0509988343E-01  5.6647303087E-01
  1.2662207358E+04  4.1696557970E+00  6.3899746226E+00  1.1220190120E-01  1.0742490839E-01  5.6940822690E-01
  1.2759197324E+04  4.2102410868E+00  6.3791977819E+00  1.1474829416E-01  1.0978150928E-01  5.7232336187E-01
  1.2856187291E+04  4.2510345841E+00  6.3686135693E+00  1.1733244683E-01  1.1216988809E-01  5.7521842006E-01
  1.2953177258E+04  4.2920044646E+00  6.3581941239E+00  1.1995462607E-01  1.1459014134E-01  5.7809339235E-01
  1.3050167224E+04  4.3331261903E+00  6.3479173919E+00  1.2261509860E-01  1.1704236693E-01  5.8094827600E-01
  1.3147157191E+04  4.3744889305E+00  6.3378438664E+00  1.2531413095E-01  1.1952677179E-01  5.8378307442E-01
  1.3244147157E+04  4.4159381305E+00  6.3278601935E+00  1.2805198951E-01  1.2204331976E-01  5.8659779692E-01
  1.3341137124E+04  4.4576992507E+00  6.3181197531E+00  1.3082894050E-01  1.2459235488E-01  5.8939245851E-01
  1.3438127090E+04  4.4995513406E+00  6.3084666224E+00  1.3364524998E-01  1.2717376294E-01  5.9216707967E-01
  1.3535117057E+04  4.5416394925E+00  6.2989957051E+00  1.3650118386E-01  1.2978780633E-01  5.9492168614E-01
  1.3632107023E+04  4.5839028980E+00  6.2896629997E+00  1.3939700786E-01  1.3243452902E-01  5.9765630873E-01
  1.3729096990E+04  4.6263129967E+00  6.2804467462E+00  1.4233398448E-01  1.3511490120E-01  6.0037098309E-01
  1.3826086957E+04  4.6689961892E+00  6.2714248447E+00  1.4531312897E-01  1.3782984188E-01  6.0306574125E-01
  1.3923076923E+04  4.7117706780E+00  6.2624788355E+00  1.4833304464E-01  1.4057773966E-01  6.0574059082E-01
  1.4020066890E+04  4.7548338429E+00  6.2537286798E+00  1.5139399765E-01  1.4335892819E-01  6.0839553898E-01
  1.4117056856E+04  4.7980385033E+00  6.2450805619E+00  1.5449625399E-01  1.4617332733E-01  6.1103059895E-01
  1.4214046823E+04  4.8414177019E+00  6.2365519687E+00  1.5764007949E-01  1.4902106932E-01  6.1364578970E-01
  1.4311036789E+04  4.8850611388E+00  6.2281932078E+00  1.6082573985E-01  1.5190236247E-01  6.1624113582E-01
  1.4408026756E+04  4.9287992315E+00  6.2199019956E+00  1.6405350061E-01  1.5481707439E-01  6.1881666724E-01
  1.4505016722E+04  4.9728396465E+00  6.2117955197E+00  1.6732362716E-01  1.5776556805E-01  6.2137241908E-01
  1.4602006689E+04  5.0170271371E+00  6.2037821981E+00  1.7063638474E-01  1.6074771999E-01  6.2390843142E-01
  1.4698996656E+04  5.0613742415E+00  6.1958670514E+00  1.7399203845E-01  1.6376362547E-01  6.2642474913E-01
  1.4795986622E+04  5.1060198523E+00  6.1881240204E+00  1.7739085325E-01  1.6681356375E-01  6.2892142167E-01
  1.4892976589E+04  5.1507637116E+00  6.1804411627E+00  1.8083309394E-01  1.6989732224E-01  6.3139849935E-01
  1.4989966555E+04  5.1957764875E+00  6.1729081210E+00  1.8431902520E-01  1.7301522599E-01  6.3385601624E-01
  1.5086956522E+04  5.2409889060E+00  6.1654853343E+00  1.8788477671E-01  1.7619878896E-01  6.3629400534E-01
  1.5183946488E+04  5.2863012422E+00  6.1581189543E+00  1.9150010743E-01  1.7942096705E-01  6.3871250496E-01
  1.5280936455E+04  5.3319808044E+00  6.1509463654E+00  1.9516122729E-01  1.8267867251E-01  6.4111155856E-01
  1.5377926421E+04  5.3777683398E+00  6.1438305072E+00  1.9886841844E-01  1.8597156402E-01  6.4349121443E-01
  1.5474916388E+04  5.4237336182E+00  6.1368065771E+00  2.0262196293E-01  1.8929982080E-01  6.4585152558E-01
  1.5571906355E+04  5.4699986555E+00  6.1299349025E+00  2.0642214275E-01  1.9266372020E-01  6.4819254952E-01
  1.5668896321E+04  5.5163673937E+00  6.1231135187E+00  2.1026923978E-01  1.9606298883E-01  6.5051434809E-01
  1.5765886288E+04  5.5629852466E+00  6.1164153353E+00  2.1416353584E-01  1.9949794286E-01  6.5281698724E-01
  1.5862876254E+04  5.6098357445E+00  6.1098295838E+00  2.1810531266E-01  2.0296861618E-01  6.5510053682E-01
  1.5959866221E+04  5.6567916165E+00  6.1032910034E+00  2.2209485191E-01  2.0647482715E-01  6.5736506192E-01
  1.6056856187E+04  5.7040552439E+00  6.0968997337E+00  2.2613243515E-01  2.1001701204E-01  6.5961061719E-01
  1.6153846154E+04  5.7514970070E+00  6.0905887536E+00  2.3021834389E-01  2.1359497707E-01  6.6183726064E-01
  1.6250836120E+04  5.7990458140E+00  6.0843220264E+00  2.3435285955E-01  2.1720862381E-01  6.6404505472E-01
  1.6347826087E+04  5.8469479657E+00  6.0782197325E+00  2.3853626346E-01  2.2085849692E-01  6.6623406617E-01
  1.6444816054E+04  5.8949866699E+00  6.0721730530E+00  2.4276883690E-01  2.2454419942E-01  6.6840436584E-01
  1.6541806020E+04  5.9431366400E+00  6.0661691380E+00  2.4705086104E-01  2.2826570882E-01  6.7055602849E-01
  1.6638795987E+04  5.9916670691E+00  6.0603374645E+00  2.5138261701E-01  2.3202364495E-01  6.7268913262E-01
  1.6735785953E+04  6.0403082628E+00  6.0545452436E+00  2.5576438582E-01  2.3581745849E-01  6.7480376030E-01
  1.6832775920E+04  6.0890788380E+00  6.0488011023E+00  2.6019644845E-01  2.3964721235E-01  6.7689999636E-01
  1.6929765886E+04  6.1382155246E+00  6.0432170691E+00  2.6467908578E-01  2.4351348139E-01  6.7897791422E-01
  1.7026755853E+04  6.1874646297E+00  6.0376700462E+00  2.6921257861E-01  2.4741570718E-01  6.8103758733E-01
  1.7123745819E+04  6.2368473833E+00  6.0321698066E+00  2.7379720767E-01  2.5135395318E-01  6.8307909542E-01
  1.7220735786E+04  6.2865956267E+00  6.0268245419E+00  2.7843325364E-01  2.5532880837E-01  6.8510252182E-01
  1.7317725753E+04  6.3364579398E+00  6.0215139949E+00  2.8312099708E-01  2.5933967527E-01  6.8710795328E-01
  1.7414715719E+04  6.3864440298E+00  6.0162424554E+00  2.8786071851E-01  2.6338658207E-01  6.8909547978E-01
  1.7511705686E+04  6.4368089729E+00  6.0111275874E+00  2.9265715430E-01  2.6747392628E-01  6.9106519440E-01
  1.7608695652E+04  6.4872896338E+00  6.0060452830E+00  2.9753916663E-01  2.7162482967E-01  6.9301719316E-01
  1.7705685619E+04  6.5378856387E+00  6.0009951572E+00  3.0247502964E-01  2.7581248325E-01  6.9495157484E-01
  1.7802675585E+04  6.5888561409E+00  5.9960953923E+00  3.0746503591E-01  2.8003760790E-01  6.9686942752E-01
  1.7899665552E+04  6.6399598348E+00  5.9912334609E+00  3.1250947797E-01  2.8429954562E-01  6.9877218947E-01
  1.7996655518E+04  6.6911805200E+00  5.9864017134E+00  3.1760864833E-01  2.8859824066E-01  7.0065991684E-01
  1.8093645485E+04  6.7427363160E+00  5.9816984095E+00  3.2276283945E-01  2.9293432652E-01  7.0253265975E-01
  1.8190635452E+04  6.7944673955E+00  5.9770493604E+00  3.2797234376E-01  2.9730733689E-01  7.0439047112E-01
  1.8287625418E+04  6.8463171056E+00  5.9724286181E+00  3.3323745365E-01  3.0171708654E-01  7.0623340659E-01
  1.8384615385E+04  6.8984477071E+00  5.9679083995E+00  3.3855846147E-01  3.0616406250E-01  7.0806152442E-01
  1.8481605351E+04  6.9508103770E+00  5.9634651505E+00  3.4393565954E-01  3.1064810879E-01  7.0987488531E-01
  1.8578595318E+04  7.0032933084E+00  5.9590484407E+00  3.4936934015E-01  3.1516885126E-01  7.1167355239E-01
  1.8675585284E+04  7.0559879264E+00  5.9546984499E+00  3.5485979555E-01  3.1972656208E-01  7.1345759102E-01
  1.8772575251E+04  7.1089862472E+00  5.9504543001E+00  3.6041239761E-01  3.2432564618E-01  7.1522706877E-01
  1.8869565217E+04  7.1621064519E+00  5.9462350233E+00  3.6602510609E-01  3.2896355698E-01  7.1698205524E-01
  1.8966555184E+04  7.2153540119E+00  5.9420428855E+00  3.7169566239E-01  3.3363820117E-01  7.1872262202E-01
  1.9063545151E+04  7.2689919004E+00  5.9379914891E+00  3.7742436075E-01  3.3835047562E-01  7.2044884258E-01
  1.9160535117E+04  7.3227532867E+00  5.9339633942E+00  3.8321149534E-01  3.4309941261E-01  7.2216079215E-01
  1.9257525084E+04  7.3766378279E+00  5.9299583498E+00  3.8905736034E-01  3.4788496210E-01  7.2385854768E-01
  1.9354515050E+04  7.4308236735E+00  5.9260525276E+00  3.9496224988E-01  3.5270774367E-01  7.2554218768E-01
  1.9451505017E+04  7.4852300069E+00  5.9222096884E+00  4.0092645806E-01  3.5756742522E-01  7.2721179169E-01
  1.9548494983E+04  7.5397611060E+00  5.9183884364E+00  4.0695027896E-01  3.6246359426E-01  7.2886743010E-01
  1.9645484950E+04  7.5944773632E+00  5.9146142803E+00  4.1303400662E-01  3.6739643042E-01  7.3050916524E-01
  1.9742474916E+04  7.6495322670E+00  5.9109510742E+00  4.1917793505E-01  3.7236650139E-01  7.3213706139E-01
  1.9839464883E+04  7.7047135388E+00  5.9073080727E+00  4.2538235824E-01  3.7737291060E-01  7.3375118505E-01
  1.9936454849E+04  7.7600208487E+00  5.9036850664E+00  4.3164757014E-01  3.8241558781E-01  7.3535160479E-01
  2.0033444816E+04  7.8156555321E+00  5.9001656521E+00  4.3798750403E-01  3.8750599329E-01  7.3693839122E-01
  2.0130434783E+04  7.8714909068E+00  5.8966955921E+00  4.4441538863E-01  3.9265355463E-01  7.3851161682E-01
  2.0227424749E+04  7.9274539224E+00  5.8932442372E+00  4.5090593268E-01  3.9783779963E-01  7.4007135589E-01
  2.0324414716E+04  7.9835957910E+00  5.8898323271E+00  4.5745944079E-01  4.0305887688E-01  7.4161768443E-01
  2.0421404682E+04  8.0400916346E+00  5.8865299114E+00  4.6407621756E-01  4.0831750564E-01  7.4315068007E-01
  2.0518394649E+04  8.0967167409E+00  5.8832449817E+00  4.7075656762E-01  4.1361261615E-01  7.4467042195E-01
  2.0615384615E+04  8.1534707926E+00  5.8799773634E+00  4.7750079556E-01  4.1894411918E-01  7.4617699065E-01
  2.0712374582E+04  8.2105158181E+00  5.8767906042E+00  4.8430920602E-01  4.2431268810E-01  7.4767046810E-01
  2.0809364548E+04  8.2678102591E+00  5.8736670421E+00  4.9118210359E-01  4.2971806394E-01  7.4915093750E-01
  2.0906354515E+04  8.3252352995E+00  5.8705596534E+00  4.9811979291E-01  4.3515959836E-01  7.5061848323E-01
  2.1003344482E+04  8.3827906292E+00  5.8674682799E+00  5.0512257857E-01  4.4063719068E-01  7.5207319037E-01
  2.1100334448E+04  8.4407347686E+00  5.8644909973E+00  5.1219076521E-01  4.4615202882E-01  7.5351513792E-01
  2.1197324415E+04  8.4988380560E+00  5.8615390841E+00  5.1932465744E-01  4.5170290065E-01  7.5494440106E-01
  2.1294314381E+04  8.5570733188E+00  5.8586021225E+00  5.2652455987E-01  4.5728956517E-01  7.5636105642E-01
  2.1391304348E+04  8.6154896404E+00  5.8556982347E+00  5.3379077714E-01  4.6291216727E-01  7.5776518212E-01
  2.1488294314E+04  8.6742784156E+00  5.8528972662E+00  5.4112361385E-01  4.6857161343E-01  7.5915685760E-01
  2.1585284281E+04  8.7332008793E+00  5.8501102426E+00  5.4852337462E-01  4.7426656459E-01  7.6053616360E-01
  2.1682274247E+04  8.7922567328E+00  5.8473370322E+00  5.5599036409E-01  4.7999690098E-01  7.6190318202E-01
  2.1779264214E+04  8.8515547825E+00  5.8446165568E+00  5.6352488687E-01  4.8576309824E-01  7.6325799591E-01
  2.1876254181E+04  8.9111716943E+00  5.8419752033E+00  5.7112724758E-01  4.9156548311E-01  7.6460068932E-01
  2.1973244147E+04  8.9709237409E+00  5.8393467203E+00  5.7879775085E-01  4.9740293578E-01  7.6593134726E-01
  2.2070234114E+04  9.0308106299E+00  5.8367309888E+00  5.8653670130E-01  5.0327532585E-01  7.6725005564E-01
  2.2167224080E+04  9.0909831694E+00  5.8341802576E+00  5.9434440355E-01  5.0918339295E-01  7.6855690117E-01
  2.2264214047E+04  9.1514386588E+00  5.8316924773E+00  6.0222116223E-01  5.1512702166E-01  7.6985197131E-01
  2.2361204013E+04  9.2120307670E+00  5.8292165650E+00  6.1016760783E-01  5.2110547925E-01  7.7113535420E-01
  2.2458193980E+04  9.2727592084E+00  5.8267524129E+00  6.1824679887E-01  5.2716424908E-01  7.7240713813E-01
  2.2555183946E+04  9.3337978613E+00  5.8243583855E+00  6.2639735419E-01  5.3325910096E-01  7.7366740621E-01
  2.2652173913E+04  9.3951024375E+00  5.8220184926E+00  6.3461959195E-01  5.3938965813E-01  7.7491623863E-01
  2.2749163880E+04  9.4565451545E+00  5.8196895312E+00  6.4291383033E-01  5.4555500651E-01  7.7615371653E-01
  2.2846153846E+04  9.5181257326E+00  5.8173714038E+00  6.5128038754E-01  5.5175499412E-01  7.7737992195E-01
  2.2943143813E+04  9.5800209525E+00  5.8151216225E+00  6.5971958185E-01  5.5799059724E-01  7.7859493770E-01
  2.3040133779E+04  9.6421851889E+00  5.8129242605E+00  6.6823173153E-01  5.6426140805E-01  7.7979884738E-01
  2.3137123746E+04  9.7044891255E+00  5.8107369542E+00  6.7681715491E-01  5.7056645336E-01  7.8099173524E-01
  2.3234113712E+04  9.7669324887E+00  5.8085596158E+00  6.8547617034E-01  5.7690557112E-01  7.8217368615E-01
  2.3331103679E+04  9.8296735265E+00  5.8064421647E+00  6.9420909620E-01  5.8327965936E-01  7.8334478553E-01
  2.3428093645E+04  9.8927080564E+00  5.8043822819E+00  7.0301625092E-01  5.8968856351E-01  7.8450511930E-01
  2.3525083612E+04  9.9558838831E+00  5.8023316354E+00  7.1189795294E-01  5.9613110853E-01  7.8565477380E-01
  2.3622073579E+04  1.0019200739E+01  5.8002901461E+00  7.2085452075E-01  6.0260712274E-01  7.8679383578E-01
  2.3719063545E+04  1.0082775610E+01  5.7982936129E+00  7.2988627286E-01  6.0911725570E-01  7.8792239228E-01
  2.3816053512E+04  1.0146691122E+01  5.7963664406E+00  7.3899352782E-01  6.1566194966E-01  7.8904053034E-01
  2.3913043478E+04  1.0210749565E+01  5.7944477372E+00  7.4817660420E-01  6.2223965556E-01  7.9014833278E-01
  2.4010033445E+04  1.0274950675E+01  5.7925374316E+00  7.5743582062E-01  6.2885019252E-01  7.9124587977E-01
  2.4107023411E+04  1.0339346128E+01  5.7906508735E+00  7.6677149573E-01  6.3549375905E-01  7.9233325200E-01
  2.4204013378E+04  1.0404153362E+01  5.7888519055E+00  7.7618394818E-01  6.4217180227E-01  7.9341053065E-01
  2.4301003344E+04  1.0469105196E+01  5.7870606874E+00  7.8567349669E-01  6.4888219491E-01  7.9447779733E-01
  2.4397993311E+04  1.0534201373E+01  5.7852771552E+00  7.9524046000E-01  6.5562474732E-01  7.9553513403E-01
  2.4494983278E+04  1.0599441640E+01  5.7835012454E+00  8.0488515686E-01  6.6239926742E-01  7.9658262307E-01
  2.4591973244E+04  1.0665112596E+01  5.7818150413E+00  8.1460790609E-01  6.6920779069E-01  7.9762034705E-01
  2.4688963211E+04  1.0730968644E+01  5.7801470914E+00  8.2440902650E-01  6.7604826712E-01  7.9864838882E-01
  2.4785953177E+04  1.0796970747E+01  5.7784861595E+00  8.3428883695E-01  6.8292020062E-01  7.9966683138E-01
  2.4882943144E+04  1.0863118657E+01  5.7768321888E+00  8.4424765633E-01  6.8982339092E-01  8.0067575788E-01
  2.4979933110E+04  1.0929584057E+01  5.7752333057E+00  8.5428580356E-01  6.9675903556E-01  8.0167525159E-01
  2.5076923077E+04  1.0996352522E+01  5.7736845914E+00  8.6445338896E-01  7.0375986003E-01  8.0266539575E-01
  2.5173913043E+04  1.1063268769E+01  5.7721422684E+00  8.7471505167E-01  7.1080048517E-01  8.0364627119E-01
  2.5270903010E+04  1.1130332554E+01  5.7706062859E+00  8.8505826152E-01  7.1787214570E-01  8.0461795530E-01
  2.5367892977E+04  1.1197572950E+01  5.7690850686E+00  8.9548334869E-01  7.2497488567E-01  8.0558052551E-01
  2.5464882943E+04  1.1265244177E+01  5.7676515102E+00  9.0599064343E-01  7.3211075116E-01  8.0653405947E-01
  2.5561872910E+04  1.1333064780E+01  5.7662237558E+00  9.1658047605E-01  7.3927709039E-01  8.0747863505E-01
  2.5658862876E+04  1.1401034520E+01  5.7648017599E+00  9.2725317688E-01  7.4647368531E-01  8.0841433022E-01
  2.5755852843E+04  1.1469153159E+01  5.7633854777E+00  9.3800907636E-01  7.5370031578E-01  8.0934122310E-01
  2.5852842809E+04  1.1537590292E+01  5.7620266083E+00  9.4884850493E-01  7.6095840082E-01  8.1025939184E-01
  2.5949832776E+04  1.1606297240E+01  5.7607094854E+00  9.5977179313E-01  7.6824729550E-01  8.1116891464E-01
  2.6046822742E+04  1.1675154731E+01  5.7593975755E+00  9.7077927153E-01  7.7556563652E-01  8.1206986966E-01
  2.6143812709E+04  1.1744162533E+01  5.7580908388E+00  9.8187127076E-01  7.8291319677E-01  8.1296233505E-01
  2.6240802676E+04  1.1813320975E+01  5.7567894186E+00  9.9304812151E-01  7.9028975312E-01  8.1384638884E-01
  2.6337792642E+04  1.1882895057E+01  5.7555791874E+00  1.0043101545E+00  7.9769792040E-01  8.1472210790E-01
  2.6434782609E+04  1.1952620894E+01  5.7543736577E+00  1.0156577006E+00  8.0513469687E-01  8.1558956468E-01
  2.6531772575E+04  1.2022498259E+01  5.7531727942E+00  1.0270910905E+00  8.1259984893E-01  8.1644883307E-01
  2.6628762542E+04  1.2092526925E+01  5.7519765619E+00  1.0386106552E+00  8.2009314118E-01  8.1729998719E-01
  2.6725752508E+04  1.2162788440E+01  5.7508135523E+00  1.0502167257E+00  8.2761530794E-01  8.1814310112E-01
  2.6822742475E+04  1.2233362063E+01  5.7497108793E+00  1.0619096330E+00  8.3516709438E-01  8.1897824888E-01
  2.6919732441E+04  1.2304088236E+01  5.7486123965E+00  1.0736897080E+00  8.4274638741E-01  8.1980550419E-01
  2.7016722408E+04  1.2374966736E+01  5.7475180732E+00  1.0855572820E+00  8.5035294579E-01  8.2062493926E-01
  2.7113712375E+04  1.2445997343E+01  5.7464278786E+00  1.0975126861E+00  8.5798652664E-01  8.2143662604E-01
  2.7210702341E+04  1.2517309079E+01  5.7453910023E+00  1.1095562514E+00  8.6564862092E-01  8.2224056326E-01
  2.7307692308E+04  1.2588862177E+01  5.7443915762E+00  1.1216883094E+00  8.7333849891E-01  8.2303719735E-01
  2.7404682274E+04  1.2660568432E+01  5.7433958665E+00  1.1339092970E+00  8.8105480830E-01  8.2382872826E-01
  2.7501672241E+04  1.2732427629E+01  5.7424038463E+00  1.1462198917E+00  8.8879750845E-01  8.2461605625E-01
  2.7598662207E+04  1.2804439552E+01  5.7414154888E+00  1.1586199832E+00  8.9656608180E-01  8.2539920656E-01
  2.7695652174E+04  1.2876752038E+01  5.7404930882E+00  1.1711099028E+00  9.0436255439E-01  8.2617820733E-01
  2.7792642140E+04  1.2949262871E+01  5.7395928525E+00  1.1836899823E+00  9.1218515750E-01  8.2695308679E-01
  2.7889632107E+04  1.3021927284E+01  5.7386958934E+00  1.1963605532E+00  9.2003295993E-01  8.2772387290E-01
  2.7986622074E+04  1.3094745065E+01  5.7378021876E+00  1.2091219472E+00  9.2790570760E-01  8.2849059340E-01
  2.8083612040E+04  1.3167716005E+01  5.7369117121E+00  1.2219744962E+00  9.3580314511E-01  8.2925327575E-01
  2.8180602007E+04  1.3240983623E+01  5.7360927073E+00  1.2349185320E+00  9.4372759373E-01  8.3001194721E-01
  2.8277591973E+04  1.3314428813E+01  5.7352878403E+00  1.2479543863E+00  9.5167671808E-01  8.3076663477E-01
  2.8374581940E+04  1.3388027815E+01  5.7344858417E+00  1.2610823911E+00  9.5964984181E-01  8.3151736521E-01
  2.8471571906E+04  1.3461780426E+01  5.7336866913E+00  1.2743028784E+00  9.6764670567E-01  8.3226416505E-01
  2.8568561873E+04  1.3535686440E+01  5.7328903695E+00  1.2876161802E+00  9.7566704930E-01  8.3300706060E-01
  2.8665551839E+04  1.3609867911E+01  5.7321642190E+00  1.3010226284E+00  9.8371323384E-01  8.3374607794E-01
  2.8762541806E+04  1.3684222468E+01  5.7314511168E+00  1.3145225553E+00  9.9178286024E-01  8.3448124292E-01
  2.8859531773E+04  1.3758730886E+01  5.7307405034E+00  1.3281162930E+00  9.9987526174E-01  8.3521258117E-01
  2.8956521739E+04  1.3833392963E+01  5.7300323619E+00  1.3418041737E+00  1.0079901747E+00  8.3594011811E-01
  2.9053511706E+04  1.3908208499E+01  5.7293266755E+00  1.3555865296E+00  1.0161273347E+00  8.3666387894E-01
  2.9150501672E+04  1.3983267367E+01  5.7286833411E+00  1.3694636930E+00  1.0242888750E+00  8.3738388863E-01
  2.9247491639E+04  1.4058504734E+01  5.7280586009E+00  1.3834359964E+00  1.0324728604E+00  8.3810017195E-01
  2.9344481605E+04  1.4133895820E+01  5.7274359968E+00  1.3975037720E+00  1.0406783764E+00  8.3881275347E-01
  2.9441471572E+04  1.4209440428E+01  5.7268155146E+00  1.4116673524E+00  1.0489051557E+00  8.3952165754E-01
  2.9538461538E+04  1.4285138364E+01  5.7261971399E+00  1.4259270699E+00  1.0571529306E+00  8.4022690830E-01
  2.9635451505E+04  1.4361043516E+01  5.7256270537E+00  1.4402832573E+00  1.0654233296E+00  8.4092852971E-01
  2.9732441472E+04  1.4437135636E+01  5.7250874596E+00  1.4547362470E+00  1.0737154274E+00  8.4162654624E-01
  2.9829431438E+04  1.4513381146E+01  5.7245496734E+00  1.4692863717E+00  1.0820277947E+00  8.4232098318E-01
  2.9926421405E+04  1.4589779854E+01  5.7240136832E+00  1.4839339641E+00  1.0903601619E+00  8.4301186518E-01
  3.0023411371E+04  1.4666331570E+01  5.7234794773E+00  1.4987079256E+00  1.0987276131E+00  8.4369921663E-01
  3.0120401338E+04  1.4743061971E+01  5.7229734988E+00  1.5136710327E+00  1.1071642129E+00  8.4438306171E-01
  3.0217391304E+04  1.4819991169E+01  5.7225159708E+00  1.5287345907E+00  1.1156225420E+00  8.4506342436E-01
  3.0314381271E+04  1.4897073326E+01  5.7220599455E+00  1.5438989471E+00  1.1241003372E+00  8.4574032831E-01
  3.0411371237E+04  1.4974308255E+01  5.7216054130E+00  1.5591644497E+00  1.1325973212E+00  8.4641379705E-01
  3.0508361204E+04  1.5051695771E+01  5.7211523638E+00  1.5745314461E+00  1.1411132159E+00  8.4708385386E-01
  3.0605351171E+04  1.5129236843E+01  5.7207017671E+00  1.5900002843E+00  1.1496477889E+00  8.4775052181E-01
  3.0702341137E+04  1.5207013976E+01  5.7203232988E+00  1.6055713120E+00  1.1582040997E+00  8.4841382374E-01
  3.0799331104E+04  1.5284943744E+01  5.7199460491E+00  1.6212448774E+00  1.1667785706E+00  8.4907378229E-01
  3.0896321070E+04  1.5363025964E+01  5.7195700104E+00  1.6370213285E+00  1.1753709228E+00  8.4973041988E-01
  3.0993311037E+04  1.5441260454E+01  5.7191951748E+00  1.6529010133E+00  1.1839808770E+00  8.5038375876E-01
  3.1090301003E+04  1.5519647034E+01  5.7188215348E+00  1.6688842802E+00  1.1926081540E+00  8.5103382093E-01
  3.1187290970E+04  1.5598244513E+01  5.7184893560E+00  1.6849714773E+00  1.2012546007E+00  8.5168062822E-01
