#[MATERIAL DEFINITION FOR MC-GPU: interaction mean free path and sampling data from PENELOPE 2006]
#[MATERIAL NAME]
# MATERIAL4                                                     
#[NOMINAL DENSITY (g/cm^3)]
#   1.00000000
#[NUMBER OF DATA VALUES]
#   1495
#[MEAN FREE PATHS (cm) (ie, average distance between interactions)]
#[Energy (eV)     | Rayleigh        | Compton         | Photoelectric   | TOTAL (+pair prod) (cm) | Rayleigh: max cumul prob F^2]
  5.0000000000E+03  2.4261919439E+00  7.2765137207E+00  3.8130824613E-02  3.7348135185E-02  3.4052684783E-01
  5.0969899666E+03  2.4801094072E+00  7.2257247061E+00  4.0441799328E-02  3.9574973749E-02  3.4540881045E-01
  5.1939799331E+03  2.5344935919E+00  7.1770536346E+00  4.2845192912E-02  4.1887044341E-02  3.5021290297E-01
  5.2909698997E+03  2.5893324546E+00  7.1303717049E+00  4.5342866237E-02  4.4285742174E-02  3.5494350978E-01
  5.3879598662E+03  2.6446138292E+00  7.0855594138E+00  4.7936681951E-02  4.6772442834E-02  3.5960476069E-01
  5.4849498328E+03  2.7003254664E+00  7.0425057640E+00  5.0629531765E-02  4.9349477658E-02  3.6420064573E-01
  5.5819397993E+03  2.7564550742E+00  7.0011075531E+00  5.3434785512E-02  5.2029081423E-02  3.6873498500E-01
  5.6789297659E+03  2.8129903573E+00  6.9612687338E+00  5.6343021265E-02  5.4801809783E-02  3.7321138918E-01
  5.7759197324E+03  2.8699190567E+00  6.9228998378E+00  5.9356158957E-02  5.7668991566E-02  3.7763328141E-01
  5.8729096990E+03  2.9272289893E+00  6.8859174557E+00  6.2476120710E-02  6.0631932521E-02  3.8200392372E-01
  5.9698996656E+03  2.9849080964E+00  6.8502437659E+00  6.5704830797E-02  6.3691914641E-02  3.8632643291E-01
  6.0668896321E+03  3.0429449594E+00  6.8158061099E+00  6.9058580118E-02  6.6863661725E-02  3.9060367805E-01
  6.1638795987E+03  3.1013296824E+00  6.7825366064E+00  7.2532867379E-02  7.0142296596E-02  3.9483838710E-01
  6.2608695652E+03  3.1600538324E+00  6.7503717993E+00  7.6123486917E-02  7.3523246635E-02  3.9903317792E-01
  6.3578595318E+03  3.2191092408E+00  6.7192523356E+00  7.9832436254E-02  7.7007739157E-02  4.0319056374E-01
  6.4548494983E+03  3.2784975202E+00  6.6891497907E+00  8.3661715540E-02  8.0596983997E-02  4.0731282667E-01
  6.5518394649E+03  3.3382120279E+00  6.6600164512E+00  8.7613457318E-02  8.4292277103E-02  4.1140204271E-01
  6.6488294314E+03  3.3982346303E+00  6.6317747571E+00  9.1689596894E-02  8.8094687145E-02  4.1546021940E-01
  6.7458193980E+03  3.4585575214E+00  6.6043784950E+00  9.5892097244E-02  9.2005286859E-02  4.1948930753E-01
  6.8428093645E+03  3.5191731499E+00  6.5777843574E+00  1.0022296921E-01  9.6025161203E-02  4.2349112631E-01
  6.9397993311E+03  3.5800742491E+00  6.5519517542E+00  1.0468422608E-01  1.0015536463E-01  4.2746723633E-01
  7.0367892977E+03  3.6412547134E+00  6.5268452190E+00  1.0929152824E-01  1.0440937479E-01  4.3141912973E-01
  7.1337792642E+03  3.7027332383E+00  6.5025041130E+00  1.1405739278E-01  1.0879766735E-01  4.3534827029E-01
  7.2307692308E+03  3.7644798104E+00  6.4788180197E+00  1.1896239820E-01  1.1330151152E-01  4.3925605042E-01
  7.3277591973E+03  3.8264902188E+00  6.4557556839E+00  1.2400865441E-01  1.1792188699E-01  4.4314362775E-01
  7.4247491639E+03  3.8887603926E+00  6.4332877336E+00  1.2919827442E-01  1.2265973918E-01  4.4701208530E-01
  7.5217391304E+03  3.9513002191E+00  6.4114262065E+00  1.3453337433E-01  1.2751600875E-01  4.5086249520E-01
  7.6187290970E+03  4.0141095456E+00  6.3901550979E+00  1.4001607328E-01  1.3249158516E-01  4.5469587545E-01
  7.7157190635E+03  4.0771668788E+00  6.3693987966E+00  1.4564849341E-01  1.3758727171E-01  4.5851304590E-01
  7.8127090301E+03  4.1404685601E+00  6.3491341173E+00  1.5143275981E-01  1.4280387117E-01  4.6231477423E-01
  7.9096989967E+03  4.2040310464E+00  6.3293951214E+00  1.5737100052E-01  1.4814220460E-01  4.6610182696E-01
  8.0066889632E+03  4.2678444163E+00  6.3101427733E+00  1.6346804071E-01  1.5360537011E-01  4.6987490173E-01
  8.1036789298E+03  4.3318920118E+00  6.2913183845E+00  1.6976102639E-01  1.5922479754E-01  4.7363454277E-01
  8.2006688963E+03  4.3961772755E+00  6.2729202869E+00  1.7621693345E-01  1.6496997069E-01  4.7738127759E-01
  8.2976588629E+03  4.4607253915E+00  6.2549980226E+00  1.8283797316E-01  1.7084162859E-01  4.8111563170E-01
  8.3946488294E+03  4.5255027541E+00  6.2374516573E+00  1.8962636015E-01  1.7684028124E-01  4.8483802731E-01
  8.4916387960E+03  4.5905082070E+00  6.2202692410E+00  1.9658441046E-01  1.8296658300E-01  4.8854880506E-01
  8.5886287625E+03  4.6557825002E+00  6.2035327344E+00  2.0371569988E-01  1.8922238614E-01  4.9224831024E-01
  8.6856187291E+03  4.7212812962E+00  6.1871271609E+00  2.1102110410E-01  1.9560685299E-01  4.9593685736E-01
  8.7826086957E+03  4.7870074481E+00  6.1710512825E+00  2.1850285416E-01  2.0212044652E-01  4.9961465690E-01
  8.8795986622E+03  4.8529993771E+00  6.1553744721E+00  2.2616318432E-01  2.0876373794E-01  5.0328190779E-01
  8.9765886288E+03  4.9192106971E+00  6.1399894321E+00  2.3400433202E-01  2.1553691216E-01  5.0693882680E-01
  9.0735785953E+03  4.9856586280E+00  6.1249233548E+00  2.4205316614E-01  2.2246117376E-01  5.1058555996E-01
  9.1705685619E+03  5.0523606620E+00  6.1101962884E+00  2.5029678166E-01  2.2952387308E-01  5.1422213893E-01
  9.2675585284E+03  5.1192778223E+00  6.0957273521E+00  2.5872985964E-01  2.3671863314E-01  5.1784860088E-01
  9.3645484950E+03  5.1864563015E+00  6.0815879212E+00  2.6735469922E-01  2.4404588693E-01  5.2146499243E-01
  9.4615384615E+03  5.2538672297E+00  6.0677166738E+00  2.7617360301E-01  2.5150567062E-01  5.2507136922E-01
  9.5585284281E+03  5.3215046522E+00  6.0540983232E+00  2.8518887699E-01  2.5909808315E-01  5.2866779144E-01
  9.6555183946E+03  5.3894131134E+00  6.0407893111E+00  2.9440283051E-01  2.6682343689E-01  5.3225422905E-01
  9.7525083612E+03  5.4575308703E+00  6.0276908980E+00  3.0381777627E-01  2.7468145417E-01  5.3583057504E-01
  9.8494983278E+03  5.5259225041E+00  6.0148862409E+00  3.1343603029E-01  2.8267247813E-01  5.3939673171E-01
  9.9464882943E+03  5.5945401004E+00  6.0023002602E+00  3.2325991183E-01  2.9079620178E-01  5.4295261102E-01
  1.0043478261E+04  5.6634025963E+00  5.9899524460E+00  3.3331929195E-01  2.9907482035E-01  5.4649813419E-01
  1.0140468227E+04  5.7325247405E+00  5.9778498587E+00  3.4362514982E-01  3.0751486579E-01  5.5003322797E-01
  1.0237458194E+04  5.8018647332E+00  5.9659380443E+00  3.5414684374E-01  3.1608918595E-01  5.5355775893E-01
  1.0334448161E+04  5.8715002330E+00  5.9542932438E+00  3.6488678045E-01  3.2479803126E-01  5.5707154681E-01
  1.0431438127E+04  5.9413349868E+00  5.9428062911E+00  3.7584737039E-01  3.3364055860E-01  5.6057442066E-01
  1.0528428094E+04  6.0114864448E+00  5.9315883882E+00  3.8703102760E-01  3.4261719845E-01  5.6406621910E-01
  1.0625418060E+04  6.0818431680E+00  5.9205230404E+00  3.9844016977E-01  3.5172689863E-01  5.6754678999E-01
  1.0722408027E+04  6.1525032902E+00  5.9096957923E+00  4.1007721814E-01  3.6096990731E-01  5.7101597906E-01
  1.0819397993E+04  6.2233905600E+00  5.8990304997E+00  4.2194459752E-01  3.7034528485E-01  5.7447358033E-01
  1.0916387960E+04  6.2945704374E+00  5.8885782152E+00  4.3404473624E-01  3.7985300147E-01  5.7791937964E-01
  1.1013377926E+04  6.3659961111E+00  5.8782925787E+00  4.4638006612E-01  3.8949221065E-01  5.8135317272E-01
  1.1110367893E+04  6.4377072234E+00  5.8682005020E+00  4.5895302247E-01  3.9926263582E-01  5.8477476476E-01
  1.1207357860E+04  6.5096783758E+00  5.8582751867E+00  4.7178188689E-01  4.0917540126E-01  5.8818396864E-01
  1.1304347826E+04  6.5819325722E+00  5.8485294267E+00  4.8489591625E-01  4.1924986338E-01  5.9158057362E-01
  1.1401337793E+04  6.6544554341E+00  5.8389460833E+00  4.9825761806E-01  4.2945495103E-01  5.9496434978E-01
  1.1498327759E+04  6.7272649150E+00  5.8295335493E+00  5.1186949943E-01  4.3979008157E-01  5.9833507629E-01
  1.1595317726E+04  6.8003448129E+00  5.8202747428E+00  5.2573407121E-01  4.5025434875E-01  6.0169254191E-01
  1.1692307692E+04  6.8737221125E+00  5.8111830861E+00  5.3985384799E-01  4.6084716665E-01  6.0503654559E-01
  1.1789297659E+04  6.9473634090E+00  5.8022322299E+00  5.5423134803E-01  4.7156739931E-01  6.0836689068E-01
  1.1886287625E+04  7.0213213791E+00  5.7934497907E+00  5.6886909326E-01  4.8241460530E-01  6.1168334318E-01
  1.1983277592E+04  7.0955274144E+00  5.7847910871E+00  5.8376960926E-01  4.9338725502E-01  6.1498566978E-01
  1.2080267559E+04  7.1700792083E+00  5.7763068456E+00  5.9893542520E-01  5.0448524074E-01  6.1827364715E-01
  1.2177257525E+04  7.2448522427E+00  5.7679252312E+00  6.1436907386E-01  5.1570643154E-01  6.2154706171E-01
  1.2274247492E+04  7.3200112996E+00  5.7597287629E+00  6.3007309157E-01  5.2705128946E-01  6.2480570946E-01
  1.2371237458E+04  7.3953524564E+00  5.7516098585E+00  6.4605001822E-01  5.3851682523E-01  6.2804939574E-01
  1.2468227425E+04  7.4711325048E+00  5.7436913044E+00  6.6230239718E-01  5.5010435951E-01  6.3127793504E-01
  1.2565217391E+04  7.5470928347E+00  5.7358448861E+00  6.7887194204E-01  5.6183706744E-01  6.3449115083E-01
  1.2662207358E+04  7.6234573486E+00  5.7281717510E+00  6.9574313480E-01  5.7370308685E-01  6.3768888047E-01
  1.2759197324E+04  7.7000548841E+00  5.7205906658E+00  7.1289988378E-01  5.8568658049E-01  6.4087095392E-01
  1.2856187291E+04  7.7770004717E+00  5.7131490856E+00  7.3034479201E-01  5.9778744383E-01  6.4403716427E-01
  1.2953177258E+04  7.8542513460E+00  5.7058256583E+00  7.4808046620E-01  6.1000394895E-01  6.4718731214E-01
  1.3050167224E+04  7.9317763079E+00  5.6986037081E+00  7.6610951672E-01  6.2233440374E-01  6.5032120792E-01
  1.3147157191E+04  8.0096970021E+00  5.6915306876E+00  7.8443455755E-01  6.3477879541E-01  6.5343867155E-01
  1.3244147157E+04  8.0878020078E+00  5.6845183377E+00  8.0305820627E-01  6.4733334978E-01  6.5653953236E-01
  1.3341137124E+04  8.1664053624E+00  5.6776873066E+00  8.2198308406E-01  6.6000022584E-01  6.5962362888E-01
  1.3438127090E+04  8.2451989169E+00  5.6709153872E+00  8.4121181564E-01  6.7277442026E-01  6.6269080864E-01
  1.3535117057E+04  8.3243885724E+00  5.6642777431E+00  8.6074702926E-01  6.8565685318E-01  6.6574092402E-01
  1.3632107023E+04  8.4038878285E+00  5.6577398481E+00  8.8059135671E-01  6.9864500549E-01  6.6877381141E-01
  1.3729096990E+04  8.4836573342E+00  5.6512848577E+00  9.0077989581E-01  7.1175708978E-01  6.7178930945E-01
  1.3826086957E+04  8.5638796791E+00  5.6449748870E+00  9.2134015219E-01  7.2500875857E-01  6.7478726644E-01
  1.3923076923E+04  8.6442918653E+00  5.6387159982E+00  9.4222087825E-01  7.3836109409E-01  6.7776753997E-01
  1.4020066890E+04  8.7251838679E+00  5.6326042455E+00  9.6342478078E-01  7.5181622587E-01  6.8072999672E-01
  1.4117056856E+04  8.8063392101E+00  5.6265648629E+00  9.8495457031E-01  7.6536968553E-01  6.8367451228E-01
  1.4214046823E+04  8.8878081781E+00  5.6206122042E+00  1.0068129612E+00  7.7902042974E-01  6.8660097096E-01
  1.4311036789E+04  8.9697246443E+00  5.6147869084E+00  1.0290026713E+00  7.9276863908E-01  6.8950926531E-01
  1.4408026756E+04  9.0518351638E+00  5.6090069357E+00  1.0515264226E+00  8.0660905382E-01  6.9239928502E-01
  1.4505016722E+04  9.1344544477E+00  5.6033671701E+00  1.0743869404E+00  8.2054439950E-01  6.9527091427E-01
  1.4602006689E+04  9.2173470263E+00  5.5977937873E+00  1.0975869538E+00  8.3456958043E-01  6.9812404550E-01
  1.4698996656E+04  9.3005331115E+00  5.5922911451E+00  1.1211291956E+00  8.4868306400E-01  7.0095857987E-01
  1.4795986622E+04  9.3842262406E+00  5.5869195198E+00  1.1450164021E+00  8.6288629533E-01  7.0377442708E-01
  1.4892976589E+04  9.4681182901E+00  5.5815881009E+00  1.1692513133E+00  8.7717280946E-01  7.0657150514E-01
  1.4989966555E+04  9.5524754024E+00  5.5763702678E+00  1.1938366729E+00  8.9154486381E-01  7.0934974020E-01
  1.5086956522E+04  9.6371894400E+00  5.5712338874E+00  1.2188400752E+00  9.0603483149E-01  7.1210906610E-01
  1.5183946488E+04  9.7221046630E+00  5.5661351076E+00  1.2442093169E+00  9.2060724871E-01  7.1484941566E-01
  1.5280936455E+04  9.8076469188E+00  5.5611867099E+00  1.2699398411E+00  9.3526308452E-01  7.1757071828E-01
  1.5377926421E+04  9.8934030497E+00  5.5562765000E+00  1.2960344473E+00  9.4999372757E-01  7.2027291080E-01
  1.5474916388E+04  9.9794871296E+00  5.5514335385E+00  1.3224959384E+00  9.6479911854E-01  7.2295593807E-01
  1.5571906355E+04  1.0066098419E+01  5.5467075707E+00  1.3493271212E+00  9.7968081305E-01  7.2561975267E-01
  1.5668896321E+04  1.0152916612E+01  5.5420149333E+00  1.3765308060E+00  9.9463137923E-01  7.2826431475E-01
  1.5765886288E+04  1.0240185008E+01  5.5374158223E+00  1.4041098070E+00  1.0096531425E+00  7.3088959180E-01
  1.5862876254E+04  1.0327876037E+01  5.5329015256E+00  1.4320669417E+00  1.0247437657E+00  7.3349555698E-01
  1.5959866221E+04  1.0415776600E+01  5.5284183932E+00  1.4604050317E+00  1.0398974219E+00  7.3608217914E-01
  1.6056856187E+04  1.0504233651E+01  5.5240492602E+00  1.4891269018E+00  1.0551185753E+00  7.3864942936E-01
  1.6153846154E+04  1.0593024953E+01  5.5197389196E+00  1.5182353805E+00  1.0704012228E+00  7.4119728598E-01
  1.6250836120E+04  1.0682028539E+01  5.5154577148E+00  1.5477332999E+00  1.0857410341E+00  7.4372573444E-01
  1.6347826087E+04  1.0771676886E+01  5.5113052752E+00  1.5776234958E+00  1.1011444382E+00  7.4623476705E-01
  1.6444816054E+04  1.0861589333E+01  5.5071916392E+00  1.6079088074E+00  1.1166021543E+00  7.4872438279E-01
  1.6541806020E+04  1.0951721526E+01  5.5031062698E+00  1.6385920773E+00  1.1321112526E+00  7.5119458978E-01
  1.6638795987E+04  1.1042557432E+01  5.4991567500E+00  1.6696761517E+00  1.1476795844E+00  7.5364540726E-01
  1.6735785953E+04  1.1133612222E+01  5.4952329956E+00  1.7011638805E+00  1.1632954358E+00  7.5607683303E-01
  1.6832775920E+04  1.1224920129E+01  5.4913422779E+00  1.7330581167E+00  1.1789574576E+00  7.5848886792E-01
  1.6929765886E+04  1.1316916800E+01  5.4875779160E+00  1.7653617171E+00  1.1946729089E+00  7.6088151947E-01
  1.7026755853E+04  1.1409135451E+01  5.4838376170E+00  1.7980775417E+00  1.2104300555E+00  7.6325480172E-01
  1.7123745819E+04  1.1501616047E+01  5.4801296190E+00  1.8312084540E+00  1.2262277149E+00  7.6560873500E-01
  1.7220735786E+04  1.1594795192E+01  5.4765442540E+00  1.8647573209E+00  1.2420735477E+00  7.6794334573E-01
  1.7317725753E+04  1.1688199529E+01  5.4729813518E+00  1.8987270128E+00  1.2579553092E+00  7.7025866618E-01
  1.7414715719E+04  1.1781847757E+01  5.4694445820E+00  1.9331204032E+00  1.2738713880E+00  7.7255473426E-01
  1.7511705686E+04  1.1876231012E+01  5.4660323988E+00  1.9679720350E+00  1.2898446637E+00  7.7483159333E-01
  1.7608695652E+04  1.1970842790E+01  5.4626411733E+00  2.0034883010E+00  1.3059478152E+00  7.7708929199E-01
  1.7705685619E+04  1.2065682381E+01  5.4592706624E+00  2.0394449658E+00  1.3220800958E+00  7.7932788385E-01
  1.7802675585E+04  1.2161256869E+01  5.4560200246E+00  2.0758450296E+00  1.3382515744E+00  7.8154742740E-01
  1.7899665552E+04  1.2257094262E+01  5.4527950425E+00  2.1126914963E+00  1.3544492611E+00  7.8374797312E-01
  1.7996655518E+04  1.2353162886E+01  5.4495893786E+00  2.1499873737E+00  1.3706703899E+00  7.8592955702E-01
  1.8093645485E+04  1.2449894976E+01  5.4464857378E+00  2.1877356734E+00  1.3869236865E+00  7.8809223265E-01
  1.8190635452E+04  1.2546973985E+01  5.4434218447E+00  2.2259394106E+00  1.4031995902E+00  7.9023605882E-01
  1.8287625418E+04  1.2644287698E+01  5.4403759544E+00  2.2646016045E+00  1.4194933695E+00  7.9236109919E-01
  1.8384615385E+04  1.2742161766E+01  5.4374090508E+00  2.3037252779E+00  1.4358114520E+00  7.9446742204E-01
  1.8481605351E+04  1.2840498362E+01  5.4345013700E+00  2.3433134576E+00  1.4521496275E+00  7.9655510006E-01
  1.8578595318E+04  1.2939073191E+01  5.4316104514E+00  2.3833691737E+00  1.4685002493E+00  7.9862421019E-01
  1.8675585284E+04  1.3038072106E+01  5.4287703535E+00  2.4238954605E+00  1.4848663633E+00  8.0067483341E-01
  1.8772575251E+04  1.3137682255E+01  5.4260142670E+00  2.4648953555E+00  1.5012512851E+00  8.0270705455E-01
  1.8869565217E+04  1.3237534219E+01  5.4232737717E+00  2.5063719003E+00  1.5176433760E+00  8.0472096211E-01
  1.8966555184E+04  1.3337639315E+01  5.4205508540E+00  2.5483281399E+00  1.5340410839E+00  8.0671664807E-01
  1.9063545151E+04  1.3438538973E+01  5.4179419850E+00  2.5907671231E+00  1.5504576878E+00  8.0869420832E-01
  1.9160535117E+04  1.3539684081E+01  5.4153476016E+00  2.6336919022E+00  1.5668763490E+00  8.1065375651E-01
  1.9257525084E+04  1.3641073989E+01  5.4127675507E+00  2.6771055332E+00  1.5832952407E+00  8.1259538094E-01
  1.9354515050E+04  1.3743080229E+01  5.4102667203E+00  2.7210110757E+00  1.5997232842E+00  8.1451915987E-01
  1.9451505017E+04  1.3845534475E+01  5.4078143584E+00  2.7654115928E+00  1.6161541262E+00  8.1642517560E-01
  1.9548494983E+04  1.3948237222E+01  5.4053752977E+00  2.8103101515E+00  1.6325803237E+00  8.1831351433E-01
  1.9645484950E+04  1.4051316097E+01  5.4029713662E+00  2.8557098219E+00  1.6490039430E+00  8.2018426594E-01
  1.9742474916E+04  1.4155095453E+01  5.4006571426E+00  2.9016136780E+00  1.6654331156E+00  8.2203752378E-01
  1.9839464883E+04  1.4259127065E+01  5.3983552443E+00  2.9480247972E+00  1.6818529589E+00  8.2387338455E-01
  1.9936454849E+04  1.4363410310E+01  5.3960655459E+00  2.9949462604E+00  1.6982617904E+00  8.2569194807E-01
  2.0033444816E+04  1.4468374715E+01  5.3938596481E+00  3.0424075139E+00  1.7146796130E+00  8.2749331713E-01
  2.0130434783E+04  1.4573750282E+01  5.3916912144E+00  3.0904367450E+00  1.7311043110E+00  8.2927759732E-01
  2.0227424749E+04  1.4679381294E+01  5.3895340688E+00  3.1389876468E+00  1.7475136197E+00  8.3104489572E-01
  2.0324414716E+04  1.4785376175E+01  5.3874060356E+00  3.1880633397E+00  1.7639094125E+00  8.3279529934E-01
  2.0421404682E+04  1.4892105609E+01  5.3853672178E+00  3.2376669477E+00  1.7803021291E+00  8.3452890534E-01
  2.0518394649E+04  1.4999094298E+01  5.3833388265E+00  3.2878015985E+00  1.7966752150E+00  8.3624582082E-01
  2.0615384615E+04  1.5106341641E+01  5.3813207594E+00  3.3384704231E+00  1.8130271387E+00  8.3794615541E-01
  2.0712374582E+04  1.5214185676E+01  5.3793675825E+00  3.3896765563E+00  1.8293676098E+00  8.3963002108E-01
  2.0809364548E+04  1.5322539909E+01  5.3774642160E+00  3.4414231362E+00  1.8456925390E+00  8.4129753202E-01
  2.0906354515E+04  1.5431156596E+01  5.3755703691E+00  3.4937133044E+00  1.8619923427E+00  8.4294880446E-01
  2.1003344482E+04  1.5540035150E+01  5.3736859502E+00  3.5465502062E+00  1.8782655838E+00  8.4458395653E-01
  2.1100334448E+04  1.5649707242E+01  5.3718952340E+00  3.5999369901E+00  1.8945291429E+00  8.4620310813E-01
  2.1197324415E+04  1.5759700808E+01  5.3701220972E+00  3.6538768082E+00  1.9107657089E+00  8.4780638079E-01
  2.1294314381E+04  1.5869960031E+01  5.3683576364E+00  3.7083728161E+00  1.9269720321E+00  8.4939389755E-01
  2.1391304348E+04  1.5980584440E+01  5.3666174703E+00  3.7634281728E+00  1.9431503102E+00  8.5096578218E-01
  2.1488294314E+04  1.6091962115E+01  5.3649616959E+00  3.8190460407E+00  1.9593131336E+00  8.5252214446E-01
  2.1585284281E+04  1.6203609215E+01  5.3633138857E+00  3.8752295856E+00  1.9754422468E+00  8.5406308941E-01
  2.1682274247E+04  1.6315525174E+01  5.3616739657E+00  3.9319819767E+00  1.9915363813E+00  8.5558872437E-01
  2.1779264214E+04  1.6427927426E+01  5.3600754655E+00  3.9893063867E+00  2.0076022627E+00  8.5709915886E-01
  2.1876254181E+04  1.6540969303E+01  5.3585411485E+00  4.0472059915E+00  2.0236444882E+00  8.5859450437E-01
  2.1973244147E+04  1.6654283795E+01  5.3570140552E+00  4.1056839705E+00  2.0396485523E+00  8.6007487428E-01
  2.2070234114E+04  1.6767870352E+01  5.3554941201E+00  4.1647435064E+00  2.0556132830E+00  8.6154038368E-01
  2.2167224080E+04  1.6882026013E+01  5.3540263824E+00  4.2243877852E+00  2.0715487658E+00  8.6299114926E-01
  2.2264214047E+04  1.6996745609E+01  5.3526091347E+00  4.2846199965E+00  2.0874539044E+00  8.6442728914E-01
  2.2361204013E+04  1.7111741015E+01  5.3511984204E+00  4.3454448501E+00  2.1033171646E+00  8.6584892271E-01
  2.2458193980E+04  1.7227011691E+01  5.3497941810E+00  4.4071580183E+00  2.1192050853E+00  8.6725616524E-01
  2.2555183946E+04  1.7342895189E+01  5.3484467709E+00  4.4694758002E+00  2.1350616341E+00  8.6864912510E-01
  2.2652173913E+04  1.7459305685E+01  5.3471424594E+00  4.5324014781E+00  2.1508826506E+00  8.7002791170E-01
  2.2749163880E+04  1.7575995182E+01  5.3458440367E+00  4.5959383379E+00  2.1666575365E+00  8.7139263614E-01
  2.2846153846E+04  1.7692963154E+01  5.3445514513E+00  4.6600896692E+00  2.1823852930E+00  8.7274341105E-01
  2.2943143813E+04  1.7810547831E+01  5.3433143686E+00  4.7248587652E+00  2.1980785184E+00  8.7408035049E-01
  2.3040133779E+04  1.7928662064E+01  5.3421190962E+00  4.7902489223E+00  2.2137329858E+00  8.7540356977E-01
  2.3137123746E+04  1.8047058487E+01  5.3409291105E+00  4.8562634409E+00  2.2293379282E+00  8.7671318541E-01
  2.3234113712E+04  1.8165736588E+01  5.3397443663E+00  4.9229056246E+00  2.2448924401E+00  8.7800931493E-01
  2.3331103679E+04  1.8284994749E+01  5.3386080155E+00  4.9901787807E+00  2.2604079511E+00  8.7929207681E-01
  2.3428093645E+04  1.8404825211E+01  5.3375181040E+00  5.0580862199E+00  2.2758834810E+00  8.8056158765E-01
  2.3525083612E+04  1.8524941051E+01  5.3364329164E+00  5.1266312566E+00  2.2913064519E+00  8.8181795666E-01
  2.3622073579E+04  1.8645341767E+01  5.3353524129E+00  5.1958172084E+00  2.3066760484E+00  8.8306129272E-01
  2.3719063545E+04  1.8766244729E+01  5.3343075754E+00  5.2656473966E+00  2.3220006914E+00  8.8429170599E-01
  2.3816053512E+04  1.8887803568E+01  5.3333195497E+00  5.3361251458E+00  2.3372862814E+00  8.8550930773E-01
  2.3913043478E+04  1.9009650967E+01  5.3323357214E+00  5.4072537842E+00  2.3525166261E+00  8.8671421023E-01
  2.4010033445E+04  1.9131786437E+01  5.3313560558E+00  5.4790366433E+00  2.3676909972E+00  8.8790652670E-01
  2.4107023411E+04  1.9254304583E+01  5.3303938639E+00  5.5514770583E+00  2.3828128114E+00  8.8908637113E-01
  2.4204013378E+04  1.9377603597E+01  5.3295044377E+00  5.6245783675E+00  2.3978987929E+00  8.9025385821E-01
  2.4301003344E+04  1.9501194351E+01  5.3286187161E+00  5.6983439127E+00  2.4129271766E+00  8.9140910319E-01
  2.4397993311E+04  1.9625076366E+01  5.3277366689E+00  5.7727770393E+00  2.4278973177E+00  8.9255221829E-01
  2.4494983278E+04  1.9749249165E+01  5.3268582662E+00  5.8478810959E+00  2.4428085923E+00  8.9368330970E-01
  2.4591973244E+04  1.9874229839E+01  5.3260546458E+00  5.9236594345E+00  2.4576834658E+00  8.9480248384E-01
  2.4688963211E+04  1.9999575392E+01  5.3252639514E+00  6.0001154106E+00  2.4725018145E+00  8.9590984804E-01
  2.4785953177E+04  2.0125215389E+01  5.3244764739E+00  6.0772523828E+00  2.4872599663E+00  8.9700551036E-01
  2.4882943144E+04  2.0251149366E+01  5.3236921876E+00  6.1550737133E+00  2.5019573758E+00  8.9808957958E-01
  2.4979933110E+04  2.0377684686E+01  5.3229528407E+00  6.2335827676E+00  2.5166075498E+00  8.9916216504E-01
  2.5076923077E+04  2.0504795621E+01  5.3222542085E+00  6.3129595609E+00  2.5312373683E+00  9.0022337658E-01
  2.5173913043E+04  2.0632204173E+01  5.3215583643E+00  6.3930811808E+00  2.5458125460E+00  9.0127332443E-01
  2.5270903010E+04  2.0759909886E+01  5.3208652864E+00  6.4739054597E+00  2.5603251760E+00  9.0231211829E-01
  2.5367892977E+04  2.0887967024E+01  5.3201822982E+00  6.5554358243E+00  2.5747773524E+00  9.0333986208E-01
  2.5464882943E+04  2.1016850130E+01  5.3195726083E+00  6.6376757049E+00  2.5891908817E+00  9.0435665769E-01
  2.5561872910E+04  2.1146033982E+01  5.3189653057E+00  6.7206285352E+00  2.6035409437E+00  9.0536260767E-01
  2.5658862876E+04  2.1275518136E+01  5.3183603719E+00  6.8042977525E+00  2.6178271331E+00  9.0635781512E-01
  2.5755852843E+04  2.1405302152E+01  5.3177577888E+00  6.8886867973E+00  2.6320490623E+00  9.0734238363E-01
  2.5852842809E+04  2.1535724654E+01  5.3172023529E+00  6.9737991136E+00  2.6462225803E+00  9.0831641718E-01
  2.5949832776E+04  2.1666688603E+01  5.3166805319E+00  7.0596381489E+00  2.6603428345E+00  9.0928002005E-01
  2.6046822742E+04  2.1797955940E+01  5.3161607084E+00  7.1462073540E+00  2.6743981515E+00  9.1023329677E-01
  2.6143812709E+04  2.1929526235E+01  5.3156428676E+00  7.2335101832E+00  2.6883882091E+00  9.1117635155E-01
  2.6240802676E+04  2.2061400264E+01  5.3151271526E+00  7.3215500940E+00  2.7023127607E+00  9.1210928382E-01
  2.6337792642E+04  2.2194148507E+01  5.3146879032E+00  7.4103305476E+00  2.7161994902E+00  9.1303219043E-01
  2.6434782609E+04  2.2327203166E+01  5.3142503044E+00  7.4998550081E+00  2.7300204605E+00  9.1394516864E-01
  2.6531772575E+04  2.2460563821E+01  5.3138143442E+00  7.5901269434E+00  2.7437754108E+00  9.1484831612E-01
  2.6628762542E+04  2.2594230054E+01  5.3133800102E+00  7.6811498245E+00  2.7574640954E+00  9.1574173080E-01
  2.6725752508E+04  2.2728392999E+01  5.3129720448E+00  7.7729271257E+00  2.7710958652E+00  9.1662551088E-01
  2.6822742475E+04  2.2863238526E+01  5.3126139239E+00  7.8654623249E+00  2.7846799055E+00  9.1749975469E-01
  2.6919732441E+04  2.2998393032E+01  5.3122571196E+00  7.9587589030E+00  2.7981973862E+00  9.1836456065E-01
  2.7016722408E+04  2.3133856105E+01  5.3119016224E+00  8.0528203444E+00  2.8116481174E+00  9.1922003162E-01
  2.7113712375E+04  2.3269627340E+01  5.3115474228E+00  8.1476501367E+00  2.8250319234E+00  9.2006626722E-01
  2.7210702341E+04  2.3406039740E+01  5.3112370412E+00  8.2432517710E+00  2.8383656911E+00  9.2090335491E-01
  2.7307692308E+04  2.3542990995E+01  5.3109567968E+00  8.3396287413E+00  2.8516441473E+00  9.2173138247E-01
  2.7404682274E+04  2.3680253749E+01  5.3106775607E+00  8.4367874714E+00  2.8648559078E+00  9.2255043816E-01
  2.7501672241E+04  2.3817827605E+01  5.3103993257E+00  8.5347410733E+00  2.8780019261E+00  9.2336061061E-01
  2.7598662207E+04  2.3955712168E+01  5.3101220848E+00  8.6334808360E+00  2.8910806609E+00  9.2416198876E-01
  2.7695652174E+04  2.4094334007E+01  5.3098996384E+00  8.7330102699E+00  2.9041143102E+00  9.2495466180E-01
  2.7792642140E+04  2.4233398697E+01  5.3096942068E+00  8.8333328889E+00  2.9170875127E+00  9.2573871909E-01
  2.7889632107E+04  2.4372777370E+01  5.3094894987E+00  8.9344522100E+00  2.9299934905E+00  9.2651425008E-01
  2.7986622074E+04  2.4512469638E+01  5.3092855091E+00  9.0363717536E+00  2.9428321761E+00  9.2728134428E-01
  2.8083612040E+04  2.4652475116E+01  5.3090822330E+00  9.1390950430E+00  2.9556035138E+00  9.2804009117E-01
  2.8180602007E+04  2.4793265996E+01  5.3089385567E+00  9.2426256050E+00  2.9683326431E+00  9.2879058018E-01
  2.8277591973E+04  2.4934451101E+01  5.3088050479E+00  9.3469669696E+00  2.9809987782E+00  9.2953290059E-01
  2.8374581940E+04  2.5075952629E+01  5.3086719997E+00  9.4521226699E+00  2.9935977728E+00  9.3026714152E-01
  2.8471571906E+04  2.5217770202E+01  5.3085394087E+00  9.5580962422E+00  3.0061296117E+00  9.3099339187E-01
  2.8568561873E+04  2.5359903446E+01  5.3084072720E+00  9.6648912261E+00  3.0185942899E+00  9.3171174028E-01
  2.8665551839E+04  2.5502822773E+01  5.3083336524E+00  9.7725111642E+00  3.0310173941E+00  9.3242227266E-01
  2.8762541806E+04  2.5646134541E+01  5.3082693378E+00  9.8809596024E+00  3.0433776309E+00  9.3312506724E-01
  2.8859531773E+04  2.5789765126E+01  5.3082052405E+00  9.9902400898E+00  3.0556710457E+00  9.3382020105E-01
  2.8956521739E+04  2.5933714163E+01  5.3081413591E+00  1.0100356178E+01  3.0678976697E+00  9.3450775143E-01
  2.9053511706E+04  2.6077981288E+01  5.3080776920E+00  1.0211311424E+01  3.0800575431E+00  9.3518779588E-01
  2.9150501672E+04  2.6222988457E+01  5.3080658391E+00  1.0323109384E+01  3.0921740987E+00  9.3586041209E-01
  2.9247491639E+04  2.6368432405E+01  5.3080681392E+00  1.0435753621E+01  3.1042306696E+00  9.3652567781E-01
  2.9344481605E+04  2.6514197521E+01  5.3080704317E+00  1.0549247700E+01  3.1162209436E+00  9.3718367083E-01
  2.9441471572E+04  2.6660283447E+01  5.3080727166E+00  1.0663595188E+01  3.1281449926E+00  9.3783446891E-01
  2.9538461538E+04  2.6806689831E+01  5.3080749940E+00  1.0778799656E+01  3.1400028967E+00  9.3847814976E-01
  2.9635451505E+04  2.6953744421E+01  5.3081170149E+00  1.0894864679E+01  3.1518132450E+00  9.3911479098E-01
  2.9732441472E+04  2.7101325342E+01  5.3081834885E+00  1.1011793833E+01  3.1635693131E+00  9.3974446999E-01
  2.9829431438E+04  2.7249229732E+01  5.3082497464E+00  1.1129590698E+01  3.1752597896E+00  9.4036726403E-01
  2.9926421405E+04  2.7397457243E+01  5.3083157901E+00  1.1248258859E+01  3.1868847823E+00  9.4098325009E-01
  3.0023411371E+04  2.7546007532E+01  5.3083816208E+00  1.1367950542E+01  3.1984561727E+00  9.4159250490E-01
  3.0120401338E+04  2.7695069651E+01  5.3084699787E+00  1.1488994734E+01  3.2100098557E+00  9.4219510485E-01
  3.0217391304E+04  2.7844792033E+01  5.3085982663E+00  1.1610932140E+01  3.2215173443E+00  9.4279112384E-01
  3.0314381271E+04  2.7994840138E+01  5.3087261458E+00  1.1733766449E+01  3.2329596191E+00  9.4338062981E-01
  3.0411371237E+04  2.8145213629E+01  5.3088536199E+00  1.1857501354E+01  3.2443368187E+00  9.4396368989E-01
  3.0508361204E+04  2.8295912170E+01  5.3089806912E+00  1.1982140551E+01  3.2556490879E+00  9.4454037135E-01
  3.0605351171E+04  2.8446942506E+01  5.3091082019E+00  1.2107687740E+01  3.2668969890E+00  9.4511074147E-01
  3.0702341137E+04  2.8598811182E+01  5.3092959523E+00  1.2234146623E+01  3.2781101405E+00  9.4567486758E-01
  3.0799331104E+04  2.8751007794E+01  5.3094831171E+00  1.2361520906E+01  3.2892590746E+00  9.4623281695E-01
  3.0896321070E+04  2.8903532014E+01  5.3096696999E+00  1.2489814298E+01  3.3003439570E+00  9.4678465678E-01
  3.0993311037E+04  2.9056383515E+01  5.3098557045E+00  1.2619030512E+01  3.3113649590E+00  9.4733045415E-01
  3.1090301003E+04  2.9209561973E+01  5.3100411344E+00  1.2749173263E+01  3.3223222573E+00  9.4787027600E-01
  3.1187290970E+04  2.9363362828E+01  5.3102604866E+00  1.2880246272E+01  3.3332334355E+00  9.4840418907E-01
