#[MATERIAL DEFINITION FOR MC-GPU: interaction mean free path and sampling data from PENELOPE 2006]
#[MATERIAL NAME]
# MATERIAL1                                                     
#[NOMINAL DENSITY (g/cm^3)]
#   1.00000000
#[NUMBER OF DATA VALUES]
#   1495
#[MEAN FREE PATHS (cm) (ie, average distance between interactions)]
#[Energy (eV)     | Rayleigh        | Compton         | Photoelectric   | TOTAL (+pair prod) (cm) | Rayleigh: max cumul prob F^2]
  5.0000000000E+03  1.9199440330E+00  1.0210849007E+01  2.5200267199E-02  2.4813340103E-02  3.3346912467E-01
  5.0969899666E+03  1.9625215091E+00  1.0092273539E+01  2.6698864357E-02  2.6271949293E-02  3.3826041709E-01
  5.1939799331E+03  2.0055108933E+00  9.9791031507E+00  2.8255622835E-02  2.7785479487E-02  3.4296433693E-01
  5.2909698997E+03  2.0489025769E+00  9.8709919024E+00  2.9871639993E-02  2.9354832292E-02  3.4758539863E-01
  5.3879598662E+03  2.0926868287E+00  9.7676207785E+00  3.1548012583E-02  3.0980900418E-02  3.5212782691E-01
  5.4849498328E+03  2.1368538270E+00  9.6686951783E+00  3.3286809214E-02  3.2665503948E-02  3.5659573801E-01
  5.5819397993E+03  2.1813936902E+00  9.5739426823E+00  3.5099979493E-02  3.4419950715E-02  3.6099313113E-01
  5.6789297659E+03  2.2262965090E+00  9.4831110596E+00  3.6977896349E-02  3.6234759721E-02  3.6532375951E-01
  5.7759197324E+03  2.2715523777E+00  9.3959664861E+00  3.8921694417E-02  3.8110818665E-02  3.6959122564E-01
  5.8729096990E+03  2.3171514259E+00  9.3122919477E+00  4.0932508024E-02  4.0049005049E-02  3.7379902881E-01
  5.9698996656E+03  2.3630838564E+00  9.2318858109E+00  4.3011471183E-02  4.2050185935E-02  3.7795047390E-01
  6.0668896321E+03  2.4093402930E+00  9.1545606690E+00  4.5166373527E-02  4.4121569383E-02  3.8204868329E-01
  6.1638795987E+03  2.4559123715E+00  9.0801423953E+00  4.7395372475E-02  4.6261134961E-02  3.8609661558E-01
  6.2608695652E+03  2.5027927071E+00  9.0084690231E+00  4.9696758746E-02  4.8466996295E-02  3.9009710934E-01
  6.3578595318E+03  2.5499741067E+00  8.9393894401E+00  5.2071695529E-02  5.0740001243E-02  3.9405285826E-01
  6.4548494983E+03  2.5974591926E+00  8.8728268866E+00  5.4521345993E-02  5.3080992430E-02  3.9796637377E-01
  6.5518394649E+03  2.6452423922E+00  8.8086610860E+00  5.7050777446E-02  5.5494490831E-02  4.0184005356E-01
  6.6488294314E+03  2.6933064579E+00  8.7467008976E+00  5.9659064092E-02  5.7979309900E-02  4.0567619358E-01
  6.7458193980E+03  2.7416444546E+00  8.6868297035E+00  6.2346024436E-02  6.0534972420E-02  4.0947699018E-01
  6.8428093645E+03  2.7902496611E+00  8.6289382509E+00  6.5112839844E-02  6.3162280213E-02  4.1324444508E-01
  6.9397993311E+03  2.8391155965E+00  8.5729241177E+00  6.7960691882E-02  6.5862022278E-02  4.1698041681E-01
  7.0367892977E+03  2.8882369278E+00  8.5186975968E+00  7.0901699943E-02  6.8645228037E-02  4.2068669956E-01
  7.1337792642E+03  2.9376335679E+00  8.4663541599E+00  7.3945406417E-02  7.1520448982E-02  4.2436503056E-01
  7.2307692308E+03  2.9872741320E+00  8.4156187196E+00  7.7075774771E-02  7.4472223503E-02  4.2801705053E-01
  7.3277591973E+03  3.0371541273E+00  8.3664105683E+00  8.0294049764E-02  7.7501331330E-02  4.3164419445E-01
  7.4247491639E+03  3.0872692554E+00  8.3186539086E+00  8.3601476772E-02  8.0608537744E-02  4.3524782503E-01
  7.5217391304E+03  3.1376290551E+00  8.2723769164E+00  8.6999301770E-02  8.3794613229E-02  4.3882927280E-01
  7.6187290970E+03  3.1882325662E+00  8.2275394610E+00  9.0488771321E-02  8.7060302662E-02  4.4238983017E-01
  7.7157190635E+03  3.2390581535E+00  8.1839510495E+00  9.4071132566E-02  9.0406302526E-02  4.4593063128E-01
  7.8127090301E+03  3.2901020920E+00  8.1415519794E+00  9.7747633206E-02  9.3833317752E-02  4.4945269292E-01
  7.9096989967E+03  3.3413796417E+00  8.1004284670E+00  1.0151952150E-01  9.7342073968E-02  4.5295701377E-01
  8.0066889632E+03  3.3928803417E+00  8.0604828832E+00  1.0538941854E-01  1.0093449698E-01  4.5644457600E-01
  8.1036789298E+03  3.4445879276E+00  8.0215644465E+00  1.0937641857E-01  1.0462753995E-01  4.5991625589E-01
  8.2006688963E+03  3.4965051694E+00  7.9836678193E+00  1.1346387333E-01  1.0840539048E-01  4.6337280322E-01
  8.2976588629E+03  3.5486525985E+00  7.9469158073E+00  1.1765307142E-01  1.1226875554E-01  4.6681495457E-01
  8.3946488294E+03  3.6009993391E+00  7.9110528262E+00  1.2194530230E-01  1.1621820376E-01  4.7024343953E-01
  8.4916387960E+03  3.6535442302E+00  7.8760476596E+00  1.2634185626E-01  1.2025435190E-01  4.7365890268E-01
  8.5886287625E+03  3.7063191814E+00  7.8421036160E+00  1.3084402438E-01  1.2437789518E-01  4.7706188324E-01
  8.6856187291E+03  3.7592865199E+00  7.8089305557E+00  1.3545309856E-01  1.2858931968E-01  4.8045291383E-01
  8.7826086957E+03  3.8124483830E+00  7.7765246970E+00  1.4017037146E-01  1.3288919874E-01  4.8383252229E-01
  8.8795986622E+03  3.8658324180E+00  7.7450561575E+00  1.4499713654E-01  1.3727817655E-01  4.8720115082E-01
  8.9765886288E+03  3.9194022409E+00  7.7142575195E+00  1.4993468802E-01  1.4175667091E-01  4.9055917289E-01
  9.0735785953E+03  3.9731701108E+00  7.6841951282E+00  1.5501335435E-01  1.4635111822E-01  4.9390696316E-01
  9.1705685619E+03  4.0271463295E+00  7.6549148743E+00  1.6021652679E-01  1.5104592118E-01  4.9724488293E-01
  9.2675585284E+03  4.0813028981E+00  7.6262180681E+00  1.6553657303E-01  1.5583344990E-01  5.0057320583E-01
  9.3645484950E+03  4.1356700111E+00  7.5982750845E+00  1.7097484458E-01  1.6071431138E-01  5.0389217941E-01
  9.4615384615E+03  4.1902265458E+00  7.5709352076E+00  1.7653269404E-01  1.6568888845E-01  5.0720205885E-01
  9.5585284281E+03  4.2449684079E+00  7.5441615693E+00  1.8221147508E-01  1.7075760898E-01  5.1050309656E-01
  9.6555183946E+03  4.2999217115E+00  7.5180838038E+00  1.8801254243E-01  1.7592101874E-01  5.1379541718E-01
  9.7525083612E+03  4.3550474601E+00  7.4924689851E+00  1.9393725188E-01  1.8117934586E-01  5.1707912410E-01
  9.8494983278E+03  4.4103835894E+00  7.4675084463E+00  1.9998696026E-01  1.8653315889E-01  5.2035432695E-01
  9.9464882943E+03  4.4659000789E+00  7.4430259935E+00  2.0616302544E-01  1.9198267757E-01  5.2362114134E-01
  1.0043478261E+04  4.5216075386E+00  7.4190655875E+00  2.1247871198E-01  1.9753859107E-01  5.2687968857E-01
  1.0140468227E+04  4.5775132026E+00  7.3956397148E+00  2.1893914037E-01  2.0320439622E-01  5.3013008439E-01
  1.0237458194E+04  4.6335930908E+00  7.3726253162E+00  2.2553143187E-01  2.0896790384E-01  5.3337234539E-01
  1.0334448161E+04  4.6898906930E+00  7.3501889826E+00  2.3225698239E-01  2.1482964183E-01  5.3660644645E-01
  1.0431438127E+04  4.7463513232E+00  7.3280882421E+00  2.3911718908E-01  2.2078958126E-01  5.3983236993E-01
  1.0528428094E+04  4.8030409370E+00  7.3065642530E+00  2.4611345031E-01  2.2684834235E-01  5.4305010464E-01
  1.0625418060E+04  4.8598963268E+00  7.2853617485E+00  2.5324716565E-01  2.3300579415E-01  5.4625964559E-01
  1.0722408027E+04  4.9169725244E+00  7.2646636149E+00  2.6051973589E-01  2.3926246378E-01  5.4946099248E-01
  1.0819397993E+04  4.9742262139E+00  7.2443046601E+00  2.6793256299E-01  2.4561827999E-01  5.5265409930E-01
  1.0916387960E+04  5.0316939886E+00  7.2243920139E+00  2.7548705007E-01  2.5207362891E-01  5.5583886679E-01
  1.1013377926E+04  5.0893491542E+00  7.2048256044E+00  2.8318460144E-01  2.5862848662E-01  5.5901520043E-01
  1.1110367893E+04  5.1472137525E+00  7.1856606901E+00  2.9102662254E-01  2.6528311451E-01  5.6218301222E-01
  1.1207357860E+04  5.2052731692E+00  7.1668392097E+00  2.9902906929E-01  2.7204955662E-01  5.6534222045E-01
  1.1304347826E+04  5.2635400780E+00  7.1483866713E+00  3.0721789751E-01  2.7894807305E-01  5.6849274840E-01
  1.1401337793E+04  5.3220060823E+00  7.1302656268E+00  3.1555779014E-01  2.8594811412E-01  5.7163448777E-01
  1.1498327759E+04  5.3806810156E+00  7.1124923157E+00  3.2405020354E-01  2.9304979422E-01  5.7476729534E-01
  1.1595317726E+04  5.4395554690E+00  7.0950300969E+00  3.3269659541E-01  3.0025306319E-01  5.7789103313E-01
  1.1692307692E+04  5.4986443562E+00  7.0779048970E+00  3.4149842477E-01  3.0755802805E-01  5.8100556968E-01
  1.1789297659E+04  5.5579286104E+00  7.0610625593E+00  3.5045715196E-01  3.1496452228E-01  5.8411077983E-01
  1.1886287625E+04  5.6174375843E+00  7.0445562297E+00  3.5957423861E-01  3.2247271498E-01  5.8720654026E-01
  1.1983277592E+04  5.6771324460E+00  7.0282972962E+00  3.6885114762E-01  3.3008224467E-01  5.9029269639E-01
  1.2080267559E+04  5.7370678321E+00  7.0123823276E+00  3.7828934320E-01  3.3779343062E-01  5.9336908280E-01
  1.2177257525E+04  5.7971735290E+00  6.9966726095E+00  3.8789029080E-01  3.4560561813E-01  5.9643554073E-01
  1.2274247492E+04  5.8575418345E+00  6.9813230944E+00  3.9765545712E-01  3.5351938567E-01  5.9949191794E-01
  1.2371237458E+04  5.9180579828E+00  6.9661305271E+00  4.0758631012E-01  3.6153366506E-01  6.0253806940E-01
  1.2468227425E+04  5.9788659300E+00  6.9513220684E+00  4.1768431899E-01  3.6964942665E-01  6.0557386320E-01
  1.2565217391E+04  6.0398202229E+00  6.9366594739E+00  4.2798420180E-01  3.7789120368E-01  6.0859912088E-01
  1.2662207358E+04  6.1010474831E+00  6.9223270573E+00  4.3847214749E-01  3.8624758614E-01  6.1161365459E-01
  1.2759197324E+04  6.1624505121E+00  6.9081758818E+00  4.4913381489E-01  3.9470510200E-01  6.1461728349E-01
  1.2856187291E+04  6.2240961138E+00  6.8942905515E+00  4.5997072026E-01  4.0326403825E-01  6.1760983358E-01
  1.2953177258E+04  6.2859593725E+00  6.8806320034E+00  4.7098438136E-01  4.1192390352E-01  6.2059113759E-01
  1.3050167224E+04  6.3480230283E+00  6.8671689585E+00  4.8217631736E-01  4.2068421484E-01  6.2356103482E-01
  1.3147157191E+04  6.4103584463E+00  6.8539853504E+00  4.9354804892E-01  4.2954529142E-01  6.2651937106E-01
  1.3244147157E+04  6.4728410516E+00  6.8409236762E+00  5.0510109808E-01  4.3850562986E-01  6.2946599840E-01
  1.3341137124E+04  6.5356584761E+00  6.8281955720E+00  5.1683698836E-01  4.4756659218E-01  6.3240077512E-01
  1.3438127090E+04  6.5986262388E+00  6.8155857425E+00  5.2875724464E-01  4.5672605776E-01  6.3532354662E-01
  1.3535117057E+04  6.6618692029E+00  6.8032242958E+00  5.4086339323E-01  4.6598477848E-01  6.3823413018E-01
  1.3632107023E+04  6.7253346790E+00  6.7910507742E+00  5.5315696182E-01  4.7534182257E-01  6.4113235045E-01
  1.3729096990E+04  6.7889992982E+00  6.7790349980E+00  5.6564875030E-01  4.8480328279E-01  6.4401803909E-01
  1.3826086957E+04  6.8529752667E+00  6.7672830369E+00  5.7834736470E-01  4.9437488147E-01  6.4689103469E-01
  1.3923076923E+04  6.9171005650E+00  6.7556333882E+00  5.9123893338E-01  5.0404307158E-01  6.4975118267E-01
  1.4020066890E+04  6.9815557450E+00  6.7442484751E+00  6.0432500511E-01  5.1380919123E-01  6.5259833509E-01
  1.4117056856E+04  7.0462057461E+00  6.7330011290E+00  6.1760713010E-01  5.2367129826E-01  6.5543235062E-01
  1.4214046823E+04  7.1110826378E+00  6.7219146064E+00  6.3108685995E-01  5.3362913963E-01  6.5825309436E-01
  1.4311036789E+04  7.1762706562E+00  6.7110565230E+00  6.4476574767E-01  5.4368307184E-01  6.6106043571E-01
  1.4408026756E+04  7.2416098977E+00  6.7002891421E+00  6.5864534765E-01  5.5383071241E-01  6.6385422770E-01
  1.4505016722E+04  7.3073007162E+00  6.6897691937E+00  6.7272721566E-01  5.6407368258E-01  6.6663431929E-01
  1.4602006689E+04  7.3731929581E+00  6.6793740473E+00  6.8701290883E-01  5.7440965745E-01  6.6940056674E-01
  1.4698996656E+04  7.4392999818E+00  6.6691101100E+00  7.0150398567E-01  5.8483809249E-01  6.7215283325E-01
  1.4795986622E+04  7.5057590175E+00  6.6590756181E+00  7.1620200603E-01  5.9535995255E-01  6.7489098878E-01
  1.4892976589E+04  7.5723717187E+00  6.6491216399E+00  7.3110853109E-01  6.0597216787E-01  6.7761490996E-01
  1.4989966555E+04  7.6393108046E+00  6.6393666458E+00  7.4622512339E-01  6.1667610211E-01  6.8032447999E-01
  1.5086956522E+04  7.7065059107E+00  6.6297582285E+00  7.6164118457E-01  6.2752982158E-01  6.8301958848E-01
  1.5183946488E+04  7.7738557843E+00  6.6202251555E+00  7.7728382357E-01  6.3847994792E-01  6.8570012960E-01
  1.5280936455E+04  7.8416403893E+00  6.6109481600E+00  7.9314470200E-01  6.4952249680E-01  6.8836598734E-01
  1.5377926421E+04  7.9095878631E+00  6.6017467815E+00  8.0922544297E-01  6.6065319095E-01  6.9101704459E-01
  1.5474916388E+04  7.9777742939E+00  6.5926671096E+00  8.2552767118E-01  6.7187217275E-01  6.9365319111E-01
  1.5571906355E+04  8.0463324745E+00  6.5837881392E+00  8.4205301290E-01  6.8318043567E-01  6.9627432333E-01
  1.5668896321E+04  8.1150486403E+00  6.5749761475E+00  8.5880309596E-01  6.9457423207E-01  6.9888034421E-01
  1.5765886288E+04  8.1840871826E+00  6.5663263045E+00  8.7577954974E-01  7.0605495133E-01  7.0147116318E-01
  1.5862876254E+04  8.2534293418E+00  6.5578244570E+00  8.9298400516E-01  7.1762150652E-01  7.0404669594E-01
  1.5959866221E+04  8.3229309649E+00  6.5493853415E+00  9.1041809466E-01  7.2927092337E-01  7.0660686431E-01
  1.6056856187E+04  8.3928295204E+00  6.5411391847E+00  9.2808345223E-01  7.4100574134E-01  7.0915158922E-01
  1.6153846154E+04  8.4629727299E+00  6.5329987122E+00  9.4598171336E-01  7.5282285594E-01  7.1168078526E-01
  1.6250836120E+04  8.5332770078E+00  6.5249170103E+00  9.6411451503E-01  7.6472003107E-01  7.1419437236E-01
  1.6347826087E+04  8.6040419755E+00  6.5170497863E+00  9.8248349576E-01  7.7670089230E-01  7.1669227682E-01
  1.6444816054E+04  8.6750037276E+00  6.5092559285E+00  1.0010902955E+00  7.8876047387E-01  7.1917443121E-01
  1.6541806020E+04  8.7461314977E+00  6.5015187485E+00  1.0199365558E+00  8.0089724788E-01  7.2164077424E-01
  1.6638795987E+04  8.8177644627E+00  6.4940053786E+00  1.0390239195E+00  8.1311565353E-01  7.2409125061E-01
  1.6735785953E+04  8.8895626571E+00  6.4865442853E+00  1.0583540310E+00  8.2540928219E-01  7.2652581083E-01
  1.6832775920E+04  8.9615502903E+00  6.4791465392E+00  1.0779285363E+00  8.3777743820E-01  7.2894440591E-01
  1.6929765886E+04  9.0340360270E+00  6.4719562130E+00  1.0977490825E+00  8.5022426369E-01  7.3134698169E-01
  1.7026755853E+04  9.1066889591E+00  6.4648148738E+00  1.1178173185E+00  8.6274322493E-01  7.3373348880E-01
  1.7123745819E+04  9.1795376640E+00  6.4577350220E+00  1.1381348945E+00  8.7533368441E-01  7.3610388384E-01
  1.7220735786E+04  9.2528947284E+00  6.4508552952E+00  1.1587034620E+00  8.8800004170E-01  7.3845812922E-01
  1.7317725753E+04  9.3264210772E+00  6.4440214752E+00  1.1795246741E+00  9.0073535944E-01  7.4079619309E-01
  1.7414715719E+04  9.4001301982E+00  6.4372390159E+00  1.2006001852E+00  9.1353871698E-01  7.4311804912E-01
  1.7511705686E+04  9.4743773290E+00  6.4306581884E+00  1.2219487529E+00  9.2642530665E-01  7.4542367912E-01
  1.7608695652E+04  9.5487959542E+00  6.4241203808E+00  1.2436819120E+00  9.3944991788E-01  7.4771307582E-01
  1.7705685619E+04  9.6233855219E+00  6.4176250773E+00  1.2656786316E+00  9.5254026028E-01  7.4998620952E-01
  1.7802675585E+04  9.6985171803E+00  6.4113229293E+00  1.2879406306E+00  9.6570221694E-01  7.5224305239E-01
  1.7899665552E+04  9.7738453190E+00  6.4050703948E+00  1.3104696291E+00  9.7892817817E-01  7.5448358240E-01
  1.7996655518E+04  9.8493467201E+00  6.3988576968E+00  1.3332673493E+00  9.9221647113E-01  7.5670778315E-01
  1.8093645485E+04  9.9253418064E+00  6.3928099607E+00  1.3563355148E+00  1.0055722430E+00  7.5891564373E-01
  1.8190635452E+04  1.0001595791E+01  6.3868326290E+00  1.3796758506E+00  1.0189897832E+00  7.6110715855E-01
  1.8287625418E+04  1.0078025447E+01  6.3808926274E+00  1.4032900836E+00  1.0324662015E+00  7.6328232718E-01
  1.8384615385E+04  1.0154875215E+01  6.3750818231E+00  1.4271799422E+00  1.0460053079E+00  7.6544115423E-01
  1.8481605351E+04  1.0232071567E+01  6.3693701877E+00  1.4513471563E+00  1.0596045114E+00  7.6758364916E-01
  1.8578595318E+04  1.0309446089E+01  6.3636935254E+00  1.4757934576E+00  1.0732590970E+00  7.6970982617E-01
  1.8675585284E+04  1.0387139999E+01  6.3581028925E+00  1.5005205790E+00  1.0869708311E+00  7.7181970399E-01
  1.8772575251E+04  1.0465295434E+01  6.3526479704E+00  1.5255302554E+00  1.1007416709E+00  7.7391330580E-01
  1.8869565217E+04  1.0543631627E+01  6.3472258030E+00  1.5508242229E+00  1.1145643655E+00  7.7599065904E-01
  1.8966555184E+04  1.0622157277E+01  6.3418392508E+00  1.5764042193E+00  1.1284378203E+00  7.7805178861E-01
  1.9063545151E+04  1.0701288699E+01  6.3366325459E+00  1.6022719839E+00  1.1423701905E+00  7.8009670697E-01
  1.9160535117E+04  1.0780603558E+01  6.3314565065E+00  1.6284292577E+00  1.1563508683E+00  7.8212542908E-01
  1.9257525084E+04  1.0860101345E+01  6.3263107980E+00  1.6548777829E+00  1.1703785456E+00  7.8413797477E-01
  1.9354515050E+04  1.0940071106E+01  6.3212920381E+00  1.6816193035E+00  1.1844587084E+00  7.8613436858E-01
  1.9451505017E+04  1.1020381801E+01  6.3163542045E+00  1.7086555648E+00  1.1985872074E+00  7.8811463960E-01
  1.9548494983E+04  1.1100878202E+01  6.3114447594E+00  1.7359883139E+00  1.2127591456E+00  7.9007882131E-01
  1.9645484950E+04  1.1181660746E+01  6.3065960206E+00  1.7636192990E+00  1.2269756589E+00  7.9202695140E-01
  1.9742474916E+04  1.1262984620E+01  6.3018888858E+00  1.7915502702E+00  1.2412418107E+00  7.9395907166E-01
  1.9839464883E+04  1.1344497066E+01  6.2972083069E+00  1.8197829788E+00  1.2555478466E+00  7.9587522779E-01
  1.9936454849E+04  1.1426197594E+01  6.2925540055E+00  1.8483191776E+00  1.2698924531E+00  7.9777546927E-01
  2.0033444816E+04  1.1508427565E+01  6.2880318238E+00  1.8771924104E+00  1.2842978803E+00  7.9965984920E-01
  2.0130434783E+04  1.1590972326E+01  6.2835730391E+00  1.9064346751E+00  1.2987712828E+00  8.0152842417E-01
  2.0227424749E+04  1.1673708122E+01  6.2791388246E+00  1.9359881473E+00  1.3132801073E+00  8.0338125286E-01
  2.0324414716E+04  1.1756721367E+01  6.2747554112E+00  1.9658546151E+00  1.3278253279E+00  8.0521838406E-01
  2.0421404682E+04  1.1840307407E+01  6.2705114040E+00  1.9960358684E+00  1.3424136097E+00  8.0703986266E-01
  2.0518394649E+04  1.1924087443E+01  6.2662903558E+00  2.0265336987E+00  1.3570337675E+00  8.0884573743E-01
  2.0615384615E+04  1.2008061005E+01  6.2620920348E+00  2.0573498989E+00  1.3716844893E+00  8.1063606101E-01
  2.0712374582E+04  1.2092497540E+01  6.2579967768E+00  2.0884862635E+00  1.3863719672E+00  8.1241088971E-01
  2.0809364548E+04  1.2177328034E+01  6.2539822155E+00  2.1199445885E+00  1.4010932206E+00  8.1417028339E-01
  2.0906354515E+04  1.2262355008E+01  6.2499888796E+00  2.1517266715E+00  1.4158415350E+00  8.1591430529E-01
  2.1003344482E+04  1.2347578001E+01  6.2460165592E+00  2.1838343116E+00  1.4306156131E+00  8.1764302187E-01
  2.1100334448E+04  1.2433420890E+01  6.2421891526E+00  2.2162693094E+00  1.4454265503E+00  8.1935650270E-01
  2.1197324415E+04  1.2519507241E+01  6.2383945323E+00  2.2490334669E+00  1.4602623605E+00  8.2105482027E-01
  2.1294314381E+04  1.2605792558E+01  6.2346195259E+00  2.2821285879E+00  1.4751204894E+00  8.2273804989E-01
  2.1391304348E+04  1.2692356222E+01  6.2308870053E+00  2.3155564773E+00  1.4900020785E+00  8.2440626954E-01
  2.1488294314E+04  1.2779507683E+01  6.2272851321E+00  2.3493189419E+00  1.5049154172E+00  8.2605954906E-01
  2.1585284281E+04  1.2866861038E+01  6.2237015478E+00  2.3834177898E+00  1.5198476831E+00  8.2769795229E-01
  2.1682274247E+04  1.2954415846E+01  6.2201360782E+00  2.4178548304E+00  1.5347976173E+00  8.2932155130E-01
  2.1779264214E+04  1.3042345561E+01  6.2166378220E+00  2.4526318749E+00  1.5497694842E+00  8.3093042107E-01
  2.1876254181E+04  1.3130772438E+01  6.2132400457E+00  2.4877507358E+00  1.5647661313E+00  8.3252463929E-01
  2.1973244147E+04  1.3219403688E+01  6.2098591451E+00  2.5232132271E+00  1.5797771369E+00  8.3410428622E-01
  2.2070234114E+04  1.3308238878E+01  6.2064949626E+00  2.5590211642E+00  1.5948012697E+00  8.3566939193E-01
  2.2167224080E+04  1.3397515030E+01  6.2032133664E+00  2.5951763639E+00  1.6098451807E+00  8.3722009926E-01
  2.2264214047E+04  1.3487227956E+01  6.2000117476E+00  2.6316806447E+00  1.6249077489E+00  8.3875666556E-01
  2.2361204013E+04  1.3577147734E+01  6.1968256874E+00  2.6685366602E+00  1.6399805428E+00  8.4027934097E-01
  2.2458193980E+04  1.3667273941E+01  6.1936550432E+00  2.7059069846E+00  1.6551224996E+00  8.4178836869E-01
  2.2555183946E+04  1.3757876004E+01  6.1905733450E+00  2.7436357780E+00  1.6702816280E+00  8.4328398454E-01
  2.2652173913E+04  1.3848885354E+01  6.1875604219E+00  2.7817249091E+00  1.6854546021E+00  8.4476629390E-01
  2.2749163880E+04  1.3940104035E+01  6.1845618287E+00  2.8201762481E+00  1.7006334579E+00  8.4623532100E-01
  2.2846153846E+04  1.4031531633E+01  6.1815774366E+00  2.8589916669E+00  1.7158170160E+00  8.4769113615E-01
  2.2943143813E+04  1.4123438201E+01  6.1786796548E+00  2.8981730387E+00  1.7310138615E+00  8.4913381189E-01
  2.3040133779E+04  1.4215754092E+01  6.1758484070E+00  2.9377222387E+00  1.7462205653E+00  8.5056342284E-01
  2.3137123746E+04  1.4308281792E+01  6.1730303417E+00  2.9776411434E+00  1.7614289280E+00  8.5198004564E-01
  2.3234113712E+04  1.4401020896E+01  6.1702253429E+00  3.0179316309E+00  1.7766378086E+00  8.5338375881E-01
  2.3331103679E+04  1.4494209722E+01  6.1674962202E+00  3.0585955809E+00  1.7918550354E+00  8.5477464261E-01
  2.3428093645E+04  1.4587842010E+01  6.1648400354E+00  3.0996348747E+00  1.8070794845E+00  8.5615277900E-01
  2.3525083612E+04  1.4681688584E+01  6.1621959611E+00  3.1410513951E+00  1.8223015297E+00  8.5751825149E-01
  2.3622073579E+04  1.4775749048E+01  6.1595638926E+00  3.1828470263E+00  1.8375200711E+00  8.5887114505E-01
  2.3719063545E+04  1.4870197075E+01  6.1569888440E+00  3.2250236544E+00  1.8527408067E+00  8.6021154505E-01
  2.3816053512E+04  1.4965155358E+01  6.1545014882E+00  3.2675831667E+00  1.8679676521E+00  8.6153953077E-01
  2.3913043478E+04  1.5060330400E+01  6.1520252403E+00  3.3105274522E+00  1.8831881998E+00  8.6285517985E-01
  2.4010033445E+04  1.5155721815E+01  6.1495600058E+00  3.3538584014E+00  1.8984013936E+00  8.6415857159E-01
  2.4107023411E+04  1.5251405219E+01  6.1471250719E+00  3.3975779063E+00  1.9136092623E+00  8.6544978692E-01
  2.4204013378E+04  1.5347698831E+01  6.1448006617E+00  3.4416878603E+00  1.9288238231E+00  8.6672890827E-01
  2.4301003344E+04  1.5444211674E+01  6.1424864210E+00  3.4861901586E+00  1.9440283695E+00  8.6799601947E-01
  2.4397993311E+04  1.5540943369E+01  6.1401822648E+00  3.5310866975E+00  1.9592218904E+00  8.6925120564E-01
  2.4494983278E+04  1.5637893539E+01  6.1378881095E+00  3.5763793752E+00  1.9744033859E+00  8.7049455315E-01
  2.4591973244E+04  1.5735475607E+01  6.1357070460E+00  3.6220700912E+00  1.9895893315E+00  8.7172614945E-01
  2.4688963211E+04  1.5833335319E+01  6.1335493142E+00  3.6681607465E+00  2.0047640736E+00  8.7294608307E-01
  2.4785953177E+04  1.5931416359E+01  6.1314007967E+00  3.7146532436E+00  2.0199243030E+00  8.7415444200E-01
  2.4882943144E+04  1.6029718359E+01  6.1292614184E+00  3.7615494863E+00  2.0350690670E+00  8.7535130851E-01
  2.4979933110E+04  1.6128487279E+01  6.1271915830E+00  3.8088513803E+00  2.0502081759E+00  8.7653676417E-01
  2.5076923077E+04  1.6227702473E+01  6.1251851023E+00  3.8567174755E+00  2.0653849456E+00  8.7771089183E-01
  2.5173913043E+04  1.6327141466E+01  6.1231870204E+00  3.9050375700E+00  2.0805556298E+00  8.7887377548E-01
  2.5270903010E+04  1.6426803896E+01  6.1211972699E+00  3.9537731696E+00  2.0957075940E+00  8.8002550018E-01
  2.5367892977E+04  1.6526733365E+01  6.1192264102E+00  4.0029262243E+00  2.1108419151E+00  8.8116615199E-01
  2.5464882943E+04  1.6627311099E+01  6.1173658251E+00  4.0524986858E+00  2.1259750460E+00  8.8229581786E-01
  2.5561872910E+04  1.6728115083E+01  6.1155128755E+00  4.1024925075E+00  2.1410872200E+00  8.8341458555E-01
  2.5658862876E+04  1.6829144966E+01  6.1136675015E+00  4.1529096441E+00  2.1561775695E+00  8.8452254358E-01
  2.5755852843E+04  1.6930400396E+01  6.1118296435E+00  4.2037520519E+00  2.1712452393E+00  8.8561978086E-01
  2.5852842809E+04  1.7032154908E+01  6.1100640313E+00  4.2550216889E+00  2.1863021947E+00  8.8670638252E-01
  2.5949832776E+04  1.7134330061E+01  6.1083510364E+00  4.3067205144E+00  2.2013441562E+00  8.8778243061E-01
  2.6046822742E+04  1.7236733550E+01  6.1066449096E+00  4.3588504894E+00  2.2163613815E+00  8.8884800797E-01
  2.6143812709E+04  1.7339365032E+01  6.1049455980E+00  4.4114135764E+00  2.2313530650E+00  8.8990319831E-01
  2.6240802676E+04  1.7442225147E+01  6.1032532777E+00  4.4644117395E+00  2.2463184605E+00  8.9094808610E-01
  2.6337792642E+04  1.7545777289E+01  6.1016753240E+00  4.5178469440E+00  2.2612792456E+00  8.9198275653E-01
  2.6434782609E+04  1.7649560180E+01  6.1001035763E+00  4.5717211571E+00  2.2762125753E+00  8.9300729540E-01
  2.6531772575E+04  1.7753573487E+01  6.0985379875E+00  4.6260363473E+00  2.2911176933E+00  8.9402178905E-01
  2.6628762542E+04  1.7857816876E+01  6.0969785111E+00  4.6807944847E+00  2.3059938557E+00  8.9502632433E-01
  2.6725752508E+04  1.7962446524E+01  6.0954608507E+00  4.7359975407E+00  2.3208481261E+00  8.9602098829E-01
  2.6822742475E+04  1.8067614261E+01  6.0940188578E+00  4.7916474885E+00  2.3356875233E+00  8.9700586461E-01
  2.6919732441E+04  1.8173014811E+01  6.0925824090E+00  4.8477463025E+00  2.3504962296E+00  8.9798103411E-01
  2.7016722408E+04  1.8278647846E+01  6.0911514631E+00  4.9042959588E+00  2.3652735501E+00  8.9894657819E-01
  2.7113712375E+04  1.8384513043E+01  6.0897259794E+00  4.9612984349E+00  2.3800188017E+00  8.9990257879E-01
  2.7210702341E+04  1.8490884144E+01  6.0883673042E+00  5.0187557097E+00  2.3947454078E+00  9.0084911840E-01
  2.7307692308E+04  1.8597677001E+01  6.0870556376E+00  5.0766697636E+00  2.4094485804E+00  9.0178627996E-01
  2.7404682274E+04  1.8704704723E+01  6.0857489026E+00  5.1350624725E+00  2.4241225576E+00  9.0271414679E-01
  2.7501672241E+04  1.8811966993E+01  6.0844470631E+00  5.1940011455E+00  2.4387809646E+00  9.0363280253E-01
  2.7598662207E+04  1.8919463495E+01  6.0831500838E+00  5.2534047082E+00  2.4534044599E+00  9.0454233111E-01
  2.7695652174E+04  1.9027547089E+01  6.0819355537E+00  5.3132751682E+00  2.4680111528E+00  9.0544281590E-01
  2.7792642140E+04  1.9135974185E+01  6.0807489176E+00  5.3736145348E+00  2.4825877354E+00  9.0633433632E-01
  2.7889632107E+04  1.9244638189E+01  6.0795666457E+00  5.4344248187E+00  2.4971280064E+00  9.0721697071E-01
  2.7986622074E+04  1.9353538792E+01  6.0783887068E+00  5.4957080321E+00  2.5116313861E+00  9.0809079785E-01
  2.8083612040E+04  1.9462675685E+01  6.0772150702E+00  5.5574661888E+00  2.5260973063E+00  9.0895589684E-01
  2.8180602007E+04  1.9572442025E+01  6.0761306214E+00  5.6197013041E+00  2.5405466856E+00  9.0981234713E-01
  2.8277591973E+04  1.9682512074E+01  6.0750640324E+00  5.6824153948E+00  2.5549614098E+00  9.1066022839E-01
  2.8374581940E+04  1.9792821060E+01  6.0740012817E+00  5.7456104792E+00  2.5693374409E+00  9.1149962046E-01
  2.8471571906E+04  1.9903368684E+01  6.0729423425E+00  5.8092885771E+00  2.5836742565E+00  9.1233060337E-01
  2.8568561873E+04  2.0014154646E+01  6.0718871882E+00  5.8734517098E+00  2.5979713454E+00  9.1315325857E-01
  2.8665551839E+04  2.0125573290E+01  6.0709194801E+00  5.9381019000E+00  2.6122503516E+00  9.1396767090E-01
  2.8762541806E+04  2.0237294595E+01  6.0699682434E+00  6.0032411721E+00  2.6264924683E+00  9.1477391367E-01
  2.8859531773E+04  2.0349256856E+01  6.0690203573E+00  6.0688715518E+00  2.6406937845E+00  9.1557205901E-01
  2.8956521739E+04  2.0461459779E+01  6.0680757987E+00  6.1349950663E+00  2.6548538330E+00  9.1636217945E-01
  2.9053511706E+04  2.0573903074E+01  6.0671345449E+00  6.2016137444E+00  2.6689721577E+00  9.1714434784E-01
  2.9150501672E+04  2.0686942980E+01  6.0662709118E+00  6.2687296163E+00  2.6830688533E+00  9.1791863731E-01
  2.9247491639E+04  2.0800323438E+01  6.0654305994E+00  6.3363447135E+00  2.6971289147E+00  9.1868512122E-01
  2.9344481605E+04  2.0913946854E+01  6.0645931849E+00  6.4044610693E+00  2.7111463312E+00  9.1944387308E-01
  2.9441471572E+04  2.1027812942E+01  6.0637586487E+00  6.4730807181E+00  2.7251206884E+00  9.2019496657E-01
  2.9538461538E+04  2.1141921420E+01  6.0629269715E+00  6.5422056961E+00  2.7390515828E+00  9.2093847541E-01
  2.9635451505E+04  2.1256551046E+01  6.0621553777E+00  6.6118380407E+00  2.7529551066E+00  9.2167447338E-01
  2.9732441472E+04  2.1371598138E+01  6.0614218086E+00  6.6819797908E+00  2.7668249083E+00  9.2240303426E-01
  2.9829431438E+04  2.1486890175E+01  6.0606907169E+00  6.7526329869E+00  2.7806504709E+00  9.2312423176E-01
  2.9926421405E+04  2.1602426880E+01  6.0599620861E+00  6.8237996706E+00  2.7944314309E+00  9.2383813952E-01
  3.0023411371E+04  2.1718207975E+01  6.0592359003E+00  6.8955397332E+00  2.8081770285E+00  9.2454483107E-01
  3.0120401338E+04  2.1834395017E+01  6.0585448663E+00  6.9679818073E+00  2.8219171662E+00  9.2524437978E-01
  3.0217391304E+04  2.1951114816E+01  6.0579139946E+00  7.0409477635E+00  2.8356290925E+00  9.2593685883E-01
  3.0314381271E+04  2.2068081521E+01  6.0572852099E+00  7.1144396842E+00  2.8492952321E+00  9.2662234050E-01
  3.0411371237E+04  2.2185294864E+01  6.0566584988E+00  7.1884596532E+00  2.8629152651E+00  9.2730089155E-01
  3.0508361204E+04  2.2302754575E+01  6.0560338477E+00  7.2630097559E+00  2.8764888810E+00  9.2797257659E-01
  3.0605351171E+04  2.2420466419E+01  6.0554124505E+00  7.3380920791E+00  2.8900161543E+00  9.2863746042E-01
  3.0702341137E+04  2.2538862059E+01  6.0548802212E+00  7.4137087112E+00  2.9035237287E+00  9.2929560796E-01
  3.0799331104E+04  2.2657506524E+01  6.0543497172E+00  7.4898617420E+00  2.9169843645E+00  9.2994708421E-01
  3.0896321070E+04  2.2776399551E+01  6.0538209273E+00  7.5665532629E+00  2.9303977872E+00  9.3059195422E-01
  3.0993311037E+04  2.2895540879E+01  6.0532938409E+00  7.6437853668E+00  2.9437637316E+00  9.3123028306E-01
  3.1090301003E+04  2.3014930247E+01  6.0527684470E+00  7.7215601479E+00  2.9570819417E+00  9.3186213574E-01
  3.1187290970E+04  2.3134818442E+01  6.0522942297E+00  7.7998797022E+00  2.9703682305E+00  9.3248757724E-01
