#[MATERIAL DEFINITION FOR MC-GPU: interaction mean free path and sampling data from PENELOPE 2006]
#[MATERIAL NAME]
# MATERIAL24                                                    
#[NOMINAL DENSITY (g/cm^3)]
#   1.00000000
#[NUMBER OF DATA VALUES]
#   1495
#[MEAN FREE PATHS (cm) (ie, average distance between interactions)]
#[Energy (eV)     | Rayleigh        | Compton         | Photoelectric   | TOTAL (+pair prod) (cm) | Rayleigh: max cumul prob F^2]
  5.0000000000E+03  1.1540909647E+00  9.9683103283E+00  5.2579751872E-03  5.2313819059E-03  2.5399608830E-01
  5.0969899666E+03  1.1750054580E+00  9.8660444950E+00  5.5376922158E-03  5.5086385782E-03  2.5888784453E-01
  5.1939799331E+03  1.1960573194E+00  9.7680037256E+00  5.8265504953E-03  5.7948644215E-03  2.6373771467E-01
  5.2909698997E+03  1.2172446470E+00  9.6739426620E+00  6.1246677037E-03  6.0901687675E-03  2.6854682603E-01
  5.3879598662E+03  1.2385654640E+00  9.5836336002E+00  6.4321607629E-03  6.3946599488E-03  2.7331622815E-01
  5.4849498328E+03  1.2600177274E+00  9.4968649341E+00  6.7492181370E-03  6.7085167240E-03  2.7804690001E-01
  5.5819397993E+03  1.2815993360E+00  9.4134397617E+00  7.0767542267E-03  7.0326343888E-03  2.8273983194E-01
  5.6789297659E+03  1.3033081383E+00  9.3331746340E+00  7.4140792819E-03  7.3663231072E-03  2.8739600877E-01
  5.7759197324E+03  1.3251419402E+00  9.2558984291E+00  7.7613090362E-03  7.7096888911E-03  2.9201630619E-01
  5.8729096990E+03  1.3470985122E+00  9.1814513386E+00  8.1185585457E-03  8.0628368068E-03  2.9660156213E-01
  5.9698996656E+03  1.3691755996E+00  9.1096839450E+00  8.4859422032E-03  8.4258709858E-03  3.0115262428E-01
  6.0668896321E+03  1.3913711012E+00  9.0404560509E+00  8.8643426444E-03  8.7996523520E-03  3.0567028602E-01
  6.1638795987E+03  1.4136833750E+00  8.9736353815E+00  9.2535128600E-03  9.1839274856E-03  3.1015525173E-01
  6.2608695652E+03  1.4361112026E+00  8.9090970882E+00  9.6547816512E-03  9.5799948070E-03  3.1460822788E-01
  6.3578595318E+03  1.4586533499E+00  8.8467240499E+00  1.0071415365E-02  9.9910569668E-03  3.1902994296E-01
  6.4548494983E+03  1.4813164344E+00  8.7864561716E+00  1.0499266400E-02  1.0413018161E-02  3.2342099128E-01
  6.5518394649E+03  1.5041012740E+00  8.7282001217E+00  1.0940532679E-02  1.0848028610E-02  3.2778188897E-01
  6.6488294314E+03  1.5269985138E+00  8.6718069600E+00  1.1394190695E-02  1.1295067926E-02  3.3211316414E-01
  6.7458193980E+03  1.5500066967E+00  8.6171847811E+00  1.1859640756E-02  1.1753534245E-02  3.3641535543E-01
  6.8428093645E+03  1.5731243213E+00  8.5642470828E+00  1.2337011804E-02  1.2223542034E-02  3.4068901076E-01
  6.9397993311E+03  1.5963498463E+00  8.5129123876E+00  1.2826432288E-02  1.2705204894E-02  3.4493465323E-01
  7.0367892977E+03  1.6196826142E+00  8.4631089619E+00  1.3328909636E-02  1.3199498104E-02  3.4915265729E-01
  7.1337792642E+03  1.6431490772E+00  8.4149124208E+00  1.3845227490E-02  1.3707177666E-02  3.5334336948E-01
  7.2307692308E+03  1.6667216753E+00  8.3681031337E+00  1.4374119751E-02  1.4226985483E-02  3.5750714783E-01
  7.3277591973E+03  1.6903992042E+00  8.3226151930E+00  1.4915716229E-02  1.4759034696E-02  3.6164436032E-01
  7.4247491639E+03  1.7141803727E+00  8.2783864679E+00  1.5470146286E-02  1.5303437586E-02  3.6575538350E-01
  7.5217391304E+03  1.7380808628E+00  8.2354385100E+00  1.6037538841E-02  1.5860307286E-02  3.6984054580E-01
  7.6187290970E+03  1.7621059274E+00  8.1937386306E+00  1.6618022381E-02  1.6429755285E-02  3.7390008336E-01
  7.7157190635E+03  1.7862330593E+00  8.1531321912E+00  1.7211724964E-02  1.7011889304E-02  3.7793423432E-01
  7.8127090301E+03  1.8104606692E+00  8.1135695302E+00  1.7818774227E-02  1.7606818222E-02  3.8194324672E-01
  7.9096989967E+03  1.8348149217E+00  8.0751199194E+00  1.8439297394E-02  1.8214653388E-02  3.8592737757E-01
  8.0066889632E+03  1.8592881348E+00  8.0377037418E+00  1.9074205583E-02  1.8836266488E-02  3.8988687274E-01
  8.1036789298E+03  1.8838596692E+00  8.0011970171E+00  1.9733775973E-02  1.9481653442E-02  3.9382190316E-01
  8.2006688963E+03  1.9085367135E+00  7.9655943063E+00  2.0407859129E-02  2.0140892885E-02  3.9773262944E-01
  8.2976588629E+03  1.9333562246E+00  7.9309966464E+00  2.1096595873E-02  2.0814108430E-02  4.0161922167E-01
  8.3946488294E+03  1.9582720491E+00  7.8971931602E+00  2.1800126695E-02  2.1501411488E-02  4.0548185850E-01
  8.4916387960E+03  1.9832841427E+00  7.8641568744E+00  2.2518591750E-02  2.2202918650E-02  4.0932071056E-01
  8.5886287625E+03  2.0084506396E+00  7.8320566517E+00  2.3252130869E-02  2.2918754906E-02  4.1313589435E-01
  8.6856187291E+03  2.0337108795E+00  7.8006511288E+00  2.4000883560E-02  2.3649026219E-02  4.1692752161E-01
  8.7826086957E+03  2.0590703266E+00  7.7699360830E+00  2.4764989012E-02  2.4393847581E-02  4.2069571274E-01
  8.8795986622E+03  2.0845831479E+00  7.7400543578E+00  2.5544586101E-02  2.5153341942E-02  4.2444059748E-01
  8.9765886288E+03  2.1101864938E+00  7.7107812523E+00  2.6339813395E-02  2.5927611235E-02  4.2816231950E-01
  9.0735785953E+03  2.1359053220E+00  7.6821719445E+00  2.7155079036E-02  2.6720906171E-02  4.3186094669E-01
  9.1705685619E+03  2.1617627182E+00  7.6542655625E+00  2.7987857737E-02  2.7530756854E-02  4.3553653200E-01
  9.2675585284E+03  2.1877070249E+00  7.6268931588E+00  2.8836967930E-02  2.8355984502E-02  4.3918913731E-01
  9.3645484950E+03  2.2137985094E+00  7.6001992748E+00  2.9702552788E-02  2.9196715707E-02  4.4281883288E-01
  9.4615384615E+03  2.2399987519E+00  7.5740556599E+00  3.0584755210E-02  3.0053056207E-02  4.4642569676E-01
  9.5585284281E+03  2.2663013995E+00  7.5484301107E+00  3.1483717822E-02  3.0925117113E-02  4.5000981427E-01
  9.6555183946E+03  2.2927600769E+00  7.5234339659E+00  3.2399582986E-02  3.1813022553E-02  4.5357127750E-01
  9.7525083612E+03  2.3192999281E+00  7.4988668655E+00  3.3332492796E-02  3.2716866248E-02  4.5711017954E-01
  9.8494983278E+03  2.3459979977E+00  7.4748934299E+00  3.4282589086E-02  3.3636776871E-02  4.6062656071E-01
  9.9464882943E+03  2.3727968483E+00  7.4513617398E+00  3.5250013431E-02  3.4572849798E-02  4.6412044222E-01
  1.0043478261E+04  2.3997192359E+00  7.4283093554E+00  3.6239393960E-02  3.5529511959E-02  4.6759185447E-01
  1.0140468227E+04  2.4267788588E+00  7.4057472804E+00  3.7252241017E-02  3.6508179908E-02  4.7104083550E-01
  1.0237458194E+04  2.4539304155E+00  7.3835680348E+00  3.8283307578E-02  3.7503763888E-02  4.7446743050E-01
  1.0334448161E+04  2.4812524977E+00  7.3619165935E+00  3.9332743067E-02  3.8516399436E-02  4.7787169143E-01
  1.0431438127E+04  2.5086454903E+00  7.3405811992E+00  4.0400696687E-02  3.9546169912E-02  4.8125367661E-01
  1.0528428094E+04  2.5362242087E+00  7.3197722035E+00  4.1487317429E-02  4.0593221334E-02  4.8461344751E-01
  1.0625418060E+04  2.5638784741E+00  7.2992662915E+00  4.2592754071E-02  4.1657630404E-02  4.8795103460E-01
  1.0722408027E+04  2.5917001401E+00  7.2792232349E+00  4.3717155179E-02  4.2739536059E-02  4.9126645383E-01
  1.0819397993E+04  2.6196165356E+00  7.2594981678E+00  4.4860669113E-02  4.3839023387E-02  4.9455972859E-01
  1.0916387960E+04  2.6476861282E+00  7.2401847757E+00  4.6023444025E-02  4.4956220128E-02  4.9783088909E-01
  1.1013377926E+04  2.6758651893E+00  7.2211950864E+00  4.7205627862E-02  4.6091218191E-02  5.0107997201E-01
  1.1110367893E+04  2.7041876905E+00  7.2025773951E+00  4.8407368373E-02  4.7244135990E-02  5.0430702014E-01
  1.1207357860E+04  2.7326296234E+00  7.1842805376E+00  4.9631893912E-02  4.8418001950E-02  5.0751208208E-01
  1.1304347826E+04  2.7612100175E+00  7.1663267086E+00  5.0884529170E-02  4.9617842799E-02  5.1069520005E-01
  1.1401337793E+04  2.7899146915E+00  7.1486828318E+00  5.2157631704E-02  5.0836335310E-02  5.1385639342E-01
  1.1498327759E+04  2.8187579650E+00  7.1313629840E+00  5.3451356655E-02  5.2073594286E-02  5.1699568476E-01
  1.1595317726E+04  2.8477249046E+00  7.1143347276E+00  5.4765858997E-02  5.3329721478E-02  5.2011310300E-01
  1.1692307692E+04  2.8768360455E+00  7.0976207850E+00  5.6101293541E-02  5.4604832866E-02  5.2320868309E-01
  1.1789297659E+04  2.9060644222E+00  7.0811730932E+00  5.7457814934E-02  5.5899022637E-02  5.2628246576E-01
  1.1886287625E+04  2.9354484199E+00  7.0650386473E+00  5.8835577661E-02  5.7212413490E-02  5.2933449724E-01
  1.1983277592E+04  2.9649370434E+00  7.0491386000E+00  6.0234736048E-02  5.8545085861E-02  5.3236482008E-01
  1.2080267559E+04  2.9945988879E+00  7.0335587841E+00  6.1655444262E-02  5.9897175942E-02  5.3537346072E-01
  1.2177257525E+04  3.0243461980E+00  7.0181754428E+00  6.3097856315E-02  6.1268742934E-02  5.3836044915E-01
  1.2274247492E+04  3.0542908790E+00  7.0031268181E+00  6.4562126060E-02  6.2659944656E-02  5.4132582114E-01
  1.2371237458E+04  3.0842949369E+00  6.9882310857E+00  6.6048407196E-02  6.4070810155E-02  5.4426961805E-01
  1.2468227425E+04  3.1145274536E+00  6.9736915588E+00  6.7556853271E-02  6.5501528527E-02  5.4719188655E-01
  1.2565217391E+04  3.1448185999E+00  6.9592945974E+00  6.9098760693E-02  6.6962571262E-02  5.5009268120E-01
  1.2662207358E+04  3.1753116499E+00  6.9452054922E+00  7.0669090235E-02  6.8449211762E-02  5.5297207286E-01
  1.2759197324E+04  3.2058974288E+00  6.9312903442E+00  7.2262677466E-02  6.9956483682E-02  5.5583009768E-01
  1.2856187291E+04  3.2366467818E+00  6.9176250951E+00  7.3879685349E-02  7.1484530666E-02  5.5866678962E-01
  1.2953177258E+04  3.2675332693E+00  6.9041744549E+00  7.5520276729E-02  7.3033439144E-02  5.6148218819E-01
  1.3050167224E+04  3.2985362732E+00  6.8909102083E+00  7.7184614340E-02  7.4603296436E-02  5.6427633829E-01
  1.3147157191E+04  3.3297296102E+00  6.8779077640E+00  7.8872860799E-02  7.6194249438E-02  5.6704928990E-01
  1.3244147157E+04  3.3609854051E+00  6.8650251551E+00  8.0585178613E-02  7.7806313362E-02  5.6980109794E-01
  1.3341137124E+04  3.3924894457E+00  6.8524530278E+00  8.2321730177E-02  7.9439709524E-02  5.7253182196E-01
  1.3438127090E+04  3.4240597090E+00  6.8399971336E+00  8.4082677773E-02  8.1094411719E-02  5.7524152603E-01
  1.3535117057E+04  3.4558152506E+00  6.8277747832E+00  8.5868183575E-02  8.2770597269E-02  5.7793027845E-01
  1.3632107023E+04  3.4877061985E+00  6.8157312591E+00  8.7678409646E-02  8.4468326071E-02  5.8059815161E-01
  1.3729096990E+04  3.5197089623E+00  6.8038392334E+00  8.9513953265E-02  8.6188076756E-02  5.8324522181E-01
  1.3826086957E+04  3.5519268289E+00  6.7921944549E+00  9.1375303274E-02  8.7930321146E-02  5.8587156603E-01
  1.3923076923E+04  3.5842112920E+00  6.7806508013E+00  9.3261895473E-02  8.9694363015E-02  5.8847723564E-01
  1.4020066890E+04  3.6167229979E+00  6.7693551581E+00  9.5173891923E-02  9.1480418238E-02  5.9106227719E-01
  1.4117056856E+04  3.6493421888E+00  6.7581922988E+00  9.7111454578E-02  9.3288481761E-02  5.9362674234E-01
  1.4214046823E+04  3.6820955284E+00  6.7471832252E+00  9.9074745291E-02  9.5118662085E-02  5.9617068764E-01
  1.4311036789E+04  3.7150557436E+00  6.7363891013E+00  1.0106392581E-01  9.6971108509E-02  5.9869417432E-01
  1.4408026756E+04  3.7480853850E+00  6.7256849796E+00  1.0307915777E-01  9.8845789168E-02  6.0119726811E-01
  1.4505016722E+04  3.7813521954E+00  6.7152129737E+00  1.0512060272E-01  1.0074293565E-01  6.0368003901E-01
  1.4602006689E+04  3.8147308001E+00  6.7048616933E+00  1.0718842211E-01  1.0266252161E-01  6.0614256113E-01
  1.4698996656E+04  3.8482311685E+00  6.6946368966E+00  1.0928277726E-01  1.0460463686E-01  6.0858491249E-01
  1.4795986622E+04  3.8819650864E+00  6.6846277390E+00  1.1140382941E-01  1.0656946882E-01  6.1100717483E-01
  1.4892976589E+04  3.9157714110E+00  6.6746987975E+00  1.1355173971E-01  1.0855694499E-01  6.1340943025E-01
  1.4989966555E+04  3.9497870103E+00  6.6649577426E+00  1.1572666920E-01  1.1056727697E-01  6.1579174498E-01
  1.5086956522E+04  3.9839563443E+00  6.6553568046E+00  1.1795242910E-01  1.1262205121E-01  6.1815418314E-01
  1.5183946488E+04  4.0181994711E+00  6.6458310887E+00  1.2020905444E-01  1.1470285427E-01  6.2049681337E-01
  1.5280936455E+04  4.0527295950E+00  6.6365449862E+00  1.2249403157E-01  1.1680754039E-01  6.2281970858E-01
  1.5377926421E+04  4.0873399571E+00  6.6273341702E+00  1.2480753266E-01  1.1893597447E-01  6.2512294576E-01
  1.5474916388E+04  4.1220858326E+00  6.6182404990E+00  1.2714972982E-01  1.2108829410E-01  6.2740660580E-01
  1.5571906355E+04  4.1570639161E+00  6.6093357813E+00  1.2952079509E-01  1.2326468815E-01  6.2967077329E-01
  1.5668896321E+04  4.1921188566E+00  6.6004982247E+00  1.3192090047E-01  1.2546505889E-01  6.3191553635E-01
  1.5765886288E+04  4.2273651455E+00  6.5918143657E+00  1.3435021787E-01  1.2768961488E-01  6.3414098648E-01
  1.5862876254E+04  4.2627898185E+00  6.5832712394E+00  1.3680891917E-01  1.2993841883E-01  6.3634721831E-01
  1.5959866221E+04  4.2982926937E+00  6.5747911603E+00  1.3929717618E-01  1.3221142205E-01  6.3853432135E-01
  1.6056856187E+04  4.3340320475E+00  6.5664925801E+00  1.4181516063E-01  1.3450889448E-01  6.4070237425E-01
  1.6153846154E+04  4.3699065141E+00  6.5582959833E+00  1.4436304422E-01  1.3683078226E-01  6.4285145822E-01
  1.6250836120E+04  4.4058605098E+00  6.5501585927E+00  1.4694099859E-01  1.3917708073E-01  6.4498165824E-01
  1.6347826087E+04  4.4420853516E+00  6.5422220595E+00  1.4954919529E-01  1.4154811429E-01  6.4709306286E-01
  1.6444816054E+04  4.4784126474E+00  6.5343578671E+00  1.5218780585E-01  1.4394372650E-01  6.4918576402E-01
  1.6541806020E+04  4.5148227524E+00  6.5265507532E+00  1.5485700173E-01  1.4636395230E-01  6.5125985692E-01
  1.6638795987E+04  4.5515233242E+00  6.5189527739E+00  1.5755695431E-01  1.4880915295E-01  6.5331543980E-01
  1.6735785953E+04  4.5883063185E+00  6.5114077243E+00  1.6028783495E-01  1.5127909645E-01  6.5535261384E-01
  1.6832775920E+04  4.6251860016E+00  6.5039256127E+00  1.6304981493E-01  1.5377386148E-01  6.5737148220E-01
  1.6929765886E+04  4.6623437087E+00  6.4966375100E+00  1.6584306548E-01  1.5629378498E-01  6.5937213458E-01
  1.7026755853E+04  4.6995851066E+00  6.4893991386E+00  1.6866775777E-01  1.5883863255E-01  6.6135466223E-01
  1.7123745819E+04  4.7369263453E+00  6.4822218122E+00  1.7152406292E-01  1.6140848324E-01  6.6331916285E-01
  1.7220735786E+04  4.7745437483E+00  6.4752316575E+00  1.7441215199E-01  1.6400367953E-01  6.6526573706E-01
  1.7317725753E+04  4.8122460931E+00  6.4682882367E+00  1.7733219599E-01  1.6662396953E-01  6.6719448824E-01
  1.7414715719E+04  4.8500407113E+00  6.4613964524E+00  1.8028436588E-01  1.6926941478E-01  6.6910552241E-01
  1.7511705686E+04  4.8881202275E+00  6.4546930122E+00  1.8327161624E-01  1.7194284937E-01  6.7099894802E-01
  1.7608695652E+04  4.9262859187E+00  6.4480334943E+00  1.8631197124E-01  1.7465966464E-01  6.7287487586E-01
  1.7705685619E+04  4.9645375036E+00  6.4414173712E+00  1.8938560505E-01  1.7740227390E-01  6.7473341890E-01
  1.7802675585E+04  5.0030696671E+00  6.4349815774E+00  1.9249269600E-01  1.8017108408E-01  6.7657591270E-01
  1.7899665552E+04  5.0417011174E+00  6.4285955252E+00  1.9563342240E-01  1.8296581871E-01  6.7840412807E-01
  1.7996655518E+04  5.0804196834E+00  6.4222502690E+00  1.9880796249E-01  1.8578649982E-01  6.8021812683E-01
  1.8093645485E+04  5.1193885472E+00  6.4160593799E+00  2.0201649453E-01  1.8863348996E-01  6.8201796207E-01
  1.8190635452E+04  5.1584881212E+00  6.4099369319E+00  2.0525919671E-01  1.9150660859E-01  6.8380368916E-01
  1.8287625418E+04  5.1976760181E+00  6.4038528371E+00  2.0853624720E-01  1.9440581393E-01  6.8557536569E-01
  1.8384615385E+04  5.2370731207E+00  6.3978903543E+00  2.1184782413E-01  1.9733139534E-01  6.8733305129E-01
  1.8481605351E+04  5.2766430416E+00  6.3920221957E+00  2.1519410562E-01  2.0028332583E-01  6.8907680764E-01
  1.8578595318E+04  5.3163024778E+00  6.3861900923E+00  2.1857526974E-01  2.0326147094E-01  6.9080669832E-01
  1.8675585284E+04  5.3561192471E+00  6.3804402327E+00  2.2199149453E-01  2.0626601374E-01  6.9252278871E-01
  1.8772575251E+04  5.3961615966E+00  6.3748175571E+00  2.2544631405E-01  2.0930003949E-01  6.9422514595E-01
  1.8869565217E+04  5.4362946390E+00  6.3692287735E+00  2.2893836390E-01  2.1236194614E-01  6.9591383883E-01
  1.8966555184E+04  5.4765224107E+00  6.3636764206E+00  2.3246613645E-01  2.1545031685E-01  6.9758893771E-01
  1.9063545151E+04  5.5170391307E+00  6.3582908951E+00  2.3602981097E-01  2.1856563987E-01  6.9925051444E-01
  1.9160535117E+04  5.5576477066E+00  6.3529372234E+00  2.3962956671E-01  2.2170749197E-01  7.0089864228E-01
  1.9257525084E+04  5.5983478801E+00  6.3476150572E+00  2.4326558289E-01  2.2487589832E-01  7.0253339582E-01
  1.9354515050E+04  5.6392706368E+00  6.3424116154E+00  2.4693803870E-01  2.2807121034E-01  7.0415485094E-01
  1.9451505017E+04  5.6803565352E+00  6.3372852804E+00  2.5064711329E-01  2.3129331583E-01  7.0576308422E-01
  1.9548494983E+04  5.7215351832E+00  6.3321885558E+00  2.5439298580E-01  2.3454206320E-01  7.0735816373E-01
  1.9645484950E+04  5.7628507782E+00  6.3271505481E+00  2.5817583533E-01  2.3781758883E-01  7.0894014999E-01
  1.9742474916E+04  5.8044156512E+00  6.3222441785E+00  2.6199584097E-01  2.4112021774E-01  7.1050910510E-01
  1.9839464883E+04  5.8460744109E+00  6.3173656305E+00  2.6585318176E-01  2.4444956358E-01  7.1206509299E-01
  1.9936454849E+04  5.8878268088E+00  6.3125146115E+00  2.6974803674E-01  2.4780564106E-01  7.1360817934E-01
  2.0033444816E+04  5.9298196726E+00  6.3077864280E+00  2.7368953199E-01  2.5119641571E-01  7.1513843151E-01
  2.0130434783E+04  5.9719605914E+00  6.3031191245E+00  2.7768632697E-01  2.5462874319E-01  7.1665591842E-01
  2.0227424749E+04  6.0141962791E+00  6.2984776830E+00  2.8172181506E-01  2.5808831686E-01  7.1816071050E-01
  2.0324414716E+04  6.0565641618E+00  6.2938856780E+00  2.8579618206E-01  2.6157525899E-01  7.1965287958E-01
  2.0421404682E+04  6.0991922271E+00  6.2894228299E+00  2.8990961377E-01  2.6508996926E-01  7.2113249886E-01
  2.0518394649E+04  6.1419162103E+00  6.2849842697E+00  2.9406229596E-01  2.6863197793E-01  7.2259964276E-01
  2.0615384615E+04  6.1847358722E+00  6.2805697513E+00  2.9825441440E-01  2.7220129127E-01  7.2405438693E-01
  2.0712374582E+04  6.2277701353E+00  6.2762515176E+00  3.0248615487E-01  2.7579828756E-01  7.2549680812E-01
  2.0809364548E+04  6.2709884774E+00  6.2720094025E+00  3.0675770313E-01  2.7942289037E-01  7.2692698411E-01
  2.0906354515E+04  6.3143036785E+00  6.2677898607E+00  3.1106924492E-01  2.8307483281E-01  7.2834499369E-01
  2.1003344482E+04  6.3577155048E+00  6.2635926684E+00  3.1542096600E-01  2.8675411494E-01  7.2975091615E-01
  2.1100334448E+04  6.4014144851E+00  6.2595292026E+00  3.1981305208E-01  2.9046136818E-01  7.3114482552E-01
  2.1197324415E+04  6.4452313347E+00  6.2554985936E+00  3.2424568892E-01  2.9419604807E-01  7.3252679284E-01
  2.1294314381E+04  6.4891460208E+00  6.2514889626E+00  3.2871906221E-01  2.9795808542E-01  7.3389689038E-01
  2.1391304348E+04  6.5331948624E+00  6.2475208323E+00  3.3323335768E-01  3.0174760038E-01  7.3525519162E-01
  2.1488294314E+04  6.5775194833E+00  6.2436733999E+00  3.3778876104E-01  3.0556508805E-01  7.3660177114E-01
  2.1585284281E+04  6.6219431797E+00  6.2398456477E+00  3.4238545797E-01  3.0940993833E-01  7.3793670457E-01
  2.1682274247E+04  6.6664657262E+00  6.2360373873E+00  3.4702363417E-01  3.1328214060E-01  7.3926006847E-01
  2.1779264214E+04  6.7111679599E+00  6.2322926899E+00  3.5170347533E-01  3.1718197821E-01  7.4057194034E-01
  2.1876254181E+04  6.7561068270E+00  6.2286413995E+00  3.5642516710E-01  3.2110966125E-01  7.4187239850E-01
  2.1973244147E+04  6.8011458142E+00  6.2250083866E+00  3.6118889517E-01  3.2506468445E-01  7.4316152203E-01
  2.2070234114E+04  6.8462847011E+00  6.2213934797E+00  3.6599484519E-01  3.2904703101E-01  7.4443939074E-01
  2.2167224080E+04  6.8916359706E+00  6.2178557808E+00  3.7084320282E-01  3.3305711575E-01  7.4570608510E-01
  2.2264214047E+04  6.9371975931E+00  6.2143929116E+00  3.7573415369E-01  3.3709492947E-01  7.4696168617E-01
  2.2361204013E+04  6.9828604160E+00  6.2109470110E+00  3.8066809065E-01  3.4116020431E-01  7.4820627554E-01
  2.2458193980E+04  7.0286242237E+00  6.2075179229E+00  3.8568509827E-01  3.4528489463E-01  7.4943993491E-01
  2.2555183946E+04  7.0746192079E+00  6.2041715907E+00  3.9074613559E-01  3.4943792447E-01  7.5066274162E-01
  2.2652173913E+04  7.1208121919E+00  6.2008898823E+00  3.9585139664E-01  3.5361915535E-01  7.5187477076E-01
  2.2749163880E+04  7.1671074921E+00  6.1976239199E+00  4.0100107548E-01  3.5782818014E-01  7.5307609818E-01
  2.2846153846E+04  7.2135048977E+00  6.1943735615E+00  4.0619536620E-01  3.6206497112E-01  7.5426680046E-01
  2.2943143813E+04  7.2601372760E+00  6.1912037089E+00  4.1143446287E-01  3.6633006539E-01  7.5544695475E-01
  2.3040133779E+04  7.3069703207E+00  6.1880963263E+00  4.1671855959E-01  3.7062330739E-01  7.5661663884E-01
  2.3137123746E+04  7.3539068327E+00  6.1850035470E+00  4.2204785048E-01  3.7494425745E-01  7.5777593102E-01
  2.3234113712E+04  7.4009466056E+00  6.1819252414E+00  4.2742252966E-01  3.7929288161E-01  7.5892491003E-01
  2.3331103679E+04  7.4482090231E+00  6.1789176723E+00  4.3284279126E-01  3.8366967898E-01  7.6006365506E-01
  2.3428093645E+04  7.4956909165E+00  6.1759781747E+00  4.3830882944E-01  3.8807461962E-01  7.6119224568E-01
  2.3525083612E+04  7.5432774634E+00  6.1730522109E+00  4.4382083835E-01  3.9250715922E-01  7.6231076176E-01
  2.3622073579E+04  7.5909684618E+00  6.1701396632E+00  4.4937901216E-01  3.9696725767E-01  7.6341928346E-01
  2.3719063545E+04  7.6388524933E+00  6.1672808243E+00  4.5498354507E-01  4.0145528961E-01  7.6451789119E-01
  2.3816053512E+04  7.6869921083E+00  6.1645031357E+00  4.6063463126E-01  4.0597152544E-01  7.6560666526E-01
  2.3913043478E+04  7.7352375981E+00  6.1617379795E+00  4.6633246496E-01  4.1051522822E-01  7.6668568257E-01
  2.4010033445E+04  7.7835887646E+00  6.1589852488E+00  4.7207724037E-01  4.1508635173E-01  7.6775501793E-01
  2.4107023411E+04  7.8320848787E+00  6.1562621850E+00  4.7786915174E-01  4.1968504207E-01  7.6881474654E-01
  2.4204013378E+04  7.8808911691E+00  6.1536405681E+00  4.8370839330E-01  4.2431207986E-01  7.6986494395E-01
  2.4301003344E+04  7.9298045901E+00  6.1510305453E+00  4.8959515932E-01  4.2896642998E-01  7.7090568601E-01
  2.4397993311E+04  7.9788249479E+00  6.1484320192E+00  4.9552964406E-01  4.3364804027E-01  7.7193704887E-01
  2.4494983278E+04  8.0279520498E+00  6.1458448939E+00  5.0151204180E-01  4.3835685690E-01  7.7295910885E-01
  2.4591973244E+04  8.0774044665E+00  6.1433613656E+00  5.0754254684E-01  4.4309396281E-01  7.7397194250E-01
  2.4688963211E+04  8.1269948837E+00  6.1409011118E+00  5.1362135348E-01  4.4785835639E-01  7.7497562648E-01
  2.4785953177E+04  8.1766935324E+00  6.1384514836E+00  5.1974865603E-01  4.5264982749E-01  7.7597023758E-01
  2.4882943144E+04  8.2265002239E+00  6.1360123939E+00  5.2592464882E-01  4.5746831643E-01  7.7695585263E-01
  2.4979933110E+04  8.2765461026E+00  6.1336378341E+00  5.3214952619E-01  4.6231447891E-01  7.7793254853E-01
  2.5076923077E+04  8.3268201389E+00  6.1313222438E+00  5.3845554865E-01  4.6721235965E-01  7.7890040212E-01
  2.5173913043E+04  8.3772037154E+00  6.1290164613E+00  5.4481992672E-01  4.7214381428E-01  7.7985948822E-01
  2.5270903010E+04  8.4276966473E+00  6.1267204076E+00  5.5123457898E-01  4.7710252596E-01  7.8080987897E-01
  2.5367892977E+04  8.4783208813E+00  6.1244435157E+00  5.5769970686E-01  4.8208855821E-01  7.8175164648E-01
  2.5464882943E+04  8.5292683176E+00  6.1222675584E+00  5.6421551178E-01  4.8710299277E-01  7.8268486302E-01
  2.5561872910E+04  8.5803264796E+00  6.1201006418E+00  5.7078219524E-01  4.9214452289E-01  7.8360960093E-01
  2.5658862876E+04  8.6314951864E+00  6.1179426942E+00  5.7739995873E-01  4.9721307741E-01  7.8452593261E-01
  2.5755852843E+04  8.6827742581E+00  6.1157936448E+00  5.8406900378E-01  5.0230858356E-01  7.8543393051E-01
  2.5852842809E+04  8.7342891461E+00  6.1137115059E+00  5.9078953194E-01  5.0743179111E-01  7.8633366706E-01
  2.5949832776E+04  8.7860038252E+00  6.1116786555E+00  5.9756174479E-01  5.1258241463E-01  7.8722521465E-01
  2.6046822742E+04  8.8378300587E+00  6.1096540611E+00  6.0438584395E-01  5.1775980615E-01  7.8810864562E-01
  2.6143812709E+04  8.8897676704E+00  6.1076376586E+00  6.1126203104E-01  5.2296388721E-01  7.8898403221E-01
  2.6240802676E+04  8.9418168899E+00  6.1056295898E+00  6.1819050773E-01  5.2819458069E-01  7.8985144654E-01
  2.6337792642E+04  8.9941689309E+00  6.1037262503E+00  6.2517147571E-01  5.3345321517E-01  7.9071095975E-01
  2.6434782609E+04  9.0466333549E+00  6.1018304971E+00  6.3220513668E-01  5.3873833789E-01  7.9156263947E-01
  2.6531772575E+04  9.0992099896E+00  6.0999422723E+00  6.3929169240E-01  5.4404986480E-01  7.9240655441E-01
  2.6628762542E+04  9.1518986635E+00  6.0980615187E+00  6.4643134462E-01  5.4938771032E-01  7.9324277338E-01
  2.6725752508E+04  9.2047564067E+00  6.0962203313E+00  6.5362429514E-01  5.5475226134E-01  7.9407136513E-01
  2.6822742475E+04  9.2578386421E+00  6.0944491328E+00  6.6087074578E-01  5.6014391118E-01  7.9489239825E-01
  2.6919732441E+04  9.3110337387E+00  6.0926848391E+00  6.6817089837E-01  5.6556165710E-01  7.9570594108E-01
  2.7016722408E+04  9.3643415288E+00  6.0909273986E+00  6.7552495480E-01  5.7100540810E-01  7.9651206070E-01
  2.7113712375E+04  9.4177618450E+00  6.0891767603E+00  6.8293311694E-01  5.7647507170E-01  7.9731082394E-01
  2.7210702341E+04  9.4713813688E+00  6.0874881692E+00  6.9039558674E-01  5.8197138720E-01  7.9810220617E-01
  2.7307692308E+04  9.5251733502E+00  6.0858437679E+00  6.9791256612E-01  5.8749402934E-01  7.9888674212E-01
  2.7404682274E+04  9.5790784971E+00  6.0842056385E+00  7.0548431845E-01  5.9304238425E-01  7.9966715800E-01
  2.7501672241E+04  9.6330966457E+00  6.0825737352E+00  7.1311124672E-01  5.9861649553E-01  8.0044455655E-01
  2.7598662207E+04  9.6872276332E+00  6.0809480124E+00  7.2079329630E-01  6.0421608213E-01  8.0121894836E-01
  2.7695652174E+04  9.7415655642E+00  6.0793984581E+00  7.2853066926E-01  6.0984211764E-01  8.0199034571E-01
  2.7792642140E+04  9.7960453221E+00  6.0778758302E+00  7.3632356774E-01  6.1549378769E-01  8.0275876104E-01
  2.7889632107E+04  9.8506383750E+00  6.0763588860E+00  7.4417219386E-01  6.2117066984E-01  8.0352420672E-01
  2.7986622074E+04  9.9053445633E+00  6.0748475848E+00  7.5207674980E-01  6.2687265994E-01  8.0428669514E-01
  2.8083612040E+04  9.9601637281E+00  6.0733418859E+00  7.6003743774E-01  6.3259965246E-01  8.0504623863E-01
  2.8180602007E+04  1.0015180502E+01  6.0719184833E+00  7.6805445990E-01  6.3835273309E-01  8.0580284948E-01
  2.8277591973E+04  1.0070324577E+01  6.0705129003E+00  7.7612801852E-01  6.4413083584E-01  8.0655653996E-01
  2.8374581940E+04  1.0125581902E+01  6.0691124539E+00  7.8425831586E-01  6.4993365847E-01  8.0730732232E-01
  2.8471571906E+04  1.0180952321E+01  6.0677171077E+00  7.9244555421E-01  6.5576109065E-01  8.0805520875E-01
  2.8568561873E+04  1.0236435679E+01  6.0663268260E+00  8.0068993589E-01  6.6161302075E-01  8.0880021143E-01
  2.8665551839E+04  1.0292095988E+01  6.0650173180E+00  8.0899166322E-01  6.6749052312E-01  8.0954234247E-01
  2.8762541806E+04  1.0347879465E+01  6.0637243245E+00  8.1735093857E-01  6.7339251997E-01  8.1028161400E-01
  2.8859531773E+04  1.0403775974E+01  6.0624359580E+00  8.2576796433E-01  6.7931871362E-01  8.1101803806E-01
  2.8956521739E+04  1.0459785361E+01  6.0611521866E+00  8.3424294289E-01  6.8526898788E-01  8.1175162668E-01
  2.9053511706E+04  1.0515907475E+01  6.0598729784E+00  8.4277607671E-01  6.9124322525E-01  8.1248239186E-01
  2.9150501672E+04  1.0572180716E+01  6.0586656934E+00  8.5136756822E-01  6.9724236721E-01  8.1321034554E-01
  2.9247491639E+04  1.0628577266E+01  6.0574810866E+00  8.6001761991E-01  7.0326556017E-01  8.1393549966E-01
  2.9344481605E+04  1.0685086454E+01  6.0563006322E+00  8.6872643429E-01  7.0931239739E-01  8.1465786608E-01
  2.9441471572E+04  1.0741708131E+01  6.0551243020E+00  8.7749421387E-01  7.1538275708E-01  8.1537745665E-01
  2.9538461538E+04  1.0798442149E+01  6.0539520679E+00  8.8632116122E-01  7.2147651623E-01  8.1609428317E-01
  2.9635451505E+04  1.0855302904E+01  6.0528358804E+00  8.9520747890E-01  7.2759436707E-01  8.1680835741E-01
  2.9732441472E+04  1.0912284856E+01  6.0517556918E+00  9.0415336951E-01  7.3373590585E-01  8.1751969110E-01
  2.9829431438E+04  1.0969378879E+01  6.0506792129E+00  9.1315903567E-01  7.3990050831E-01  8.1822829592E-01
  2.9926421405E+04  1.1026584829E+01  6.0496064191E+00  9.2222468002E-01  7.4608804741E-01  8.1893418352E-01
  3.0023411371E+04  1.1083902562E+01  6.0485372858E+00  9.3136855503E-01  7.5231017166E-01  8.1963736552E-01
  3.0120401338E+04  1.1141335158E+01  6.0475015672E+00  9.4063031069E-01  7.5859278131E-01  8.2033785348E-01
  3.0217391304E+04  1.1198885006E+01  6.0465220068E+00  9.4995389871E-01  7.6489932176E-01  8.2103565893E-01
  3.0314381271E+04  1.1256546270E+01  6.0455457433E+00  9.5933953099E-01  7.7122881622E-01  8.2173079336E-01
  3.0411371237E+04  1.1314318809E+01  6.0445727553E+00  9.6878741945E-01  7.7758113048E-01  8.2242326823E-01
  3.0508361204E+04  1.1372202482E+01  6.0436030213E+00  9.7829777607E-01  7.8395612916E-01  8.2311309494E-01
  3.0605351171E+04  1.1430197452E+01  6.0426376224E+00  9.8787081286E-01  7.9035369611E-01  8.2380028486E-01
  3.0702341137E+04  1.1488325420E+01  6.0417550107E+00  9.9750674188E-01  7.9677516459E-01  8.2448484932E-01
  3.0799331104E+04  1.1546564257E+01  6.0408753111E+00  1.0072057752E+00  8.0321894837E-01  8.2516679960E-01
  3.0896321070E+04  1.1604913826E+01  6.0399985048E+00  1.0169681250E+00  8.0968490837E-01  8.2584614695E-01
  3.0993311037E+04  1.1663373989E+01  6.0391245734E+00  1.0267940034E+00  8.1617290446E-01  8.2652290258E-01
  3.1090301003E+04  1.1721944607E+01  6.0382534985E+00  1.0366836227E+00  8.2268279546E-01  8.2719707764E-01
  3.1187290970E+04  1.1780648789E+01  6.0374306380E+00  1.0466371951E+00  8.2921541031E-01  8.2786868326E-01
