#[MATERIAL DEFINITION FOR MC-GPU: interaction mean free path and sampling data from PENELOPE 2006]
#[MATERIAL NAME]
# MATERIAL2                                                     
#[NOMINAL DENSITY (g/cm^3)]
#   1.00000000
#[NUMBER OF DATA VALUES]
#   1495
#[MEAN FREE PATHS (cm) (ie, average distance between interactions)]
#[Energy (eV)     | Rayleigh        | Compton         | Photoelectric   | TOTAL (+pair prod) (cm) | Rayleigh: max cumul prob F^2]
  5.0000000000E+03  1.8581717752E+00  8.4479805485E+00  2.3660887712E-02  2.3298957107E-02  3.4460286597E-01
  5.0969899666E+03  1.8994376856E+00  8.3504162489E+00  2.5067354494E-02  2.4667757082E-02  3.4955801519E-01
  5.1939799331E+03  1.9411686437E+00  8.2578244223E+00  2.6528436197E-02  2.6088101897E-02  3.5440638475E-01
  5.2909698997E+03  1.9833551718E+00  8.1698644127E+00  2.8045168229E-02  2.7560840928E-02  3.5915274853E-01
  5.3879598662E+03  2.0259876443E+00  8.0862233468E+00  2.9618585679E-02  2.9086815366E-02  3.6380160768E-01
  5.4849498328E+03  2.0690563168E+00  8.0066134429E+00  3.1250735993E-02  3.0667833256E-02  3.6835756168E-01
  5.5819397993E+03  2.1125513556E+00  7.9307696270E+00  3.2953971113E-02  3.2315597856E-02  3.7282508075E-01
  5.6789297659E+03  2.1564628674E+00  7.8584474153E+00  3.4718174307E-02  3.4020164357E-02  3.7720833371E-01
  5.7759197324E+03  2.2007809304E+00  7.7894210305E+00  3.6544813293E-02  3.5782748808E-02  3.8151140258E-01
  5.8729096990E+03  2.2454956247E+00  7.7234817214E+00  3.8435123303E-02  3.7604332958E-02  3.8573831165E-01
  5.9698996656E+03  2.2905970688E+00  7.6604362576E+00  4.0389727746E-02  3.9485303120E-02  3.8989282278E-01
  6.0668896321E+03  2.3360756927E+00  7.6001053659E+00  4.2416585926E-02  4.1433038147E-02  3.9397849517E-01
  6.1638795987E+03  2.3819226982E+00  7.5423221774E+00  4.4513696329E-02  4.3445374907E-02  3.9799890948E-01
  6.2608695652E+03  2.4281300431E+00  7.4869312600E+00  4.6679203231E-02  4.5520297419E-02  4.0195747119E-01
  6.3578595318E+03  2.4746898475E+00  7.4337882295E+00  4.8914220621E-02  4.7658616985E-02  4.0585737300E-01
  6.4548494983E+03  2.5216067466E+00  7.3828264881E+00  5.1219862903E-02  4.9861142045E-02  4.0970161596E-01
  6.5518394649E+03  2.5688750501E+00  7.3339320209E+00  5.3597342040E-02  5.2128757066E-02  4.1349303564E-01
  6.6488294314E+03  2.6164739909E+00  7.2869169120E+00  5.6047720487E-02  5.4462182408E-02  4.1723442986E-01
  6.7458193980E+03  2.6643958811E+00  7.2416716939E+00  5.8572080191E-02  5.6862152885E-02  4.2092846339E-01
  6.8428093645E+03  2.7126332510E+00  7.1980943924E+00  6.1171537499E-02  5.9329423727E-02  4.2457764084E-01
  6.9397993311E+03  2.7611788782E+00  7.1560899721E+00  6.3847209134E-02  6.1864738107E-02  4.2818433642E-01
  7.0367892977E+03  2.8100269861E+00  7.1155762791E+00  6.6610950166E-02  6.4478889678E-02  4.3175080644E-01
  7.1337792642E+03  2.8592050805E+00  7.0766570737E+00  6.9472110634E-02  6.7180270392E-02  4.3527921048E-01
  7.2307692308E+03  2.9086724621E+00  7.0390611926E+00  7.2414917774E-02  6.9953682053E-02  4.3877156993E-01
  7.3277591973E+03  2.9584238086E+00  7.0027156028E+00  7.5440554469E-02  7.2799863518E-02  4.4222978268E-01
  7.4247491639E+03  3.0084540291E+00  6.9675521880E+00  7.8550204490E-02  7.5719540055E-02  4.4565566559E-01
  7.5217391304E+03  3.0587764085E+00  6.9336049097E+00  8.1745052478E-02  7.8713447666E-02  4.4905096215E-01
  7.6187290970E+03  3.1093903642E+00  6.9008379678E+00  8.5026283931E-02  8.1782294757E-02  4.5241733342E-01
  7.7157190635E+03  3.1602677276E+00  6.8690697315E+00  8.8395085195E-02  8.4926734628E-02  4.5575628336E-01
  7.8127090301E+03  3.2114040781E+00  6.8382480127E+00  9.1852643447E-02  8.8147435672E-02  4.5906922910E-01
  7.9096989967E+03  3.2628203995E+00  6.8084600445E+00  9.5400146686E-02  9.1445095681E-02  4.6235754081E-01
  8.0066889632E+03  3.3145033482E+00  6.7796140602E+00  9.9040065789E-02  9.4821520152E-02  4.6562254557E-01
  8.1036789298E+03  3.3664313942E+00  6.7515706592E+00  1.0279024570E-01  9.8292524105E-02  4.6886547678E-01
  8.2006688963E+03  3.4186085276E+00  6.7243294440E+00  1.0663513997E-01  1.0184334304E-01  4.7208742869E-01
  8.2976588629E+03  3.4710613033E+00  6.6980087066E+00  1.1057597316E-01  1.0547465815E-01  4.7528945535E-01
  8.3946488294E+03  3.5237488099E+00  6.6723715304E+00  1.1461397084E-01  1.0918699055E-01  4.7847258534E-01
  8.4916387960E+03  3.5766697821E+00  6.6473933010E+00  1.1875046703E-01  1.1298102092E-01  4.8163780781E-01
  8.5886287625E+03  3.6298645552E+00  6.6232647859E+00  1.2298817007E-01  1.1685876222E-01  4.8478598200E-01
  8.6856187291E+03  3.6832845537E+00  6.5997196226E+00  1.2732683001E-01  1.2081930971E-01  4.8791790626E-01
  8.7826086957E+03  3.7369327142E+00  6.5767582784E+00  1.3176767974E-01  1.2486320969E-01  4.9103436478E-01
  8.8795986622E+03  3.7908426427E+00  6.5545375011E+00  1.3631195317E-01  1.2899108988E-01  4.9413612336E-01
  8.9765886288E+03  3.8449689582E+00  6.5328155843E+00  1.4096088517E-01  1.3320332593E-01  4.9722385156E-01
  9.0735785953E+03  3.8993266345E+00  6.5116555959E+00  1.4573781393E-01  1.3752013432E-01  5.0029814686E-01
  9.1705685619E+03  3.9539267002E+00  6.4910993777E+00  1.5063033550E-01  1.4192974890E-01  5.0335959857E-01
  9.2675585284E+03  4.0087357677E+00  6.4709712314E+00  1.5563288828E-01  1.4642641998E-01  5.0640878596E-01
  9.3645484950E+03  4.0637880941E+00  6.4514245139E+00  1.6074675153E-01  1.5101073272E-01  5.0944621164E-01
  9.4615384615E+03  4.1190582358E+00  6.4323261136E+00  1.6597320573E-01  1.5568303172E-01  5.1247231516E-01
  9.5585284281E+03  4.1745417018E+00  6.4136460527E+00  1.7131519736E-01  1.6044517604E-01  5.1548753218E-01
  9.6555183946E+03  4.2302654958E+00  6.3954978737E+00  1.7677304801E-01  1.6529683144E-01  5.1849229020E-01
  9.7525083612E+03  4.2861872347E+00  6.3776801703E+00  1.8234747534E-01  1.7023769289E-01  5.2148694618E-01
  9.8494983278E+03  4.3423460878E+00  6.3603595366E+00  1.8803976835E-01  1.7526830739E-01  5.2447181511E-01
  9.9464882943E+03  4.3987096758E+00  6.3433843905E+00  1.9385121722E-01  1.8038886694E-01  5.2744721201E-01
  1.0043478261E+04  4.4552886306E+00  6.3267940797E+00  1.9979467235E-01  1.8560972448E-01  5.3041346399E-01
  1.0140468227E+04  4.5120883596E+00  6.3105991399E+00  2.0587505168E-01  1.9093423122E-01  5.3337081723E-01
  1.0237458194E+04  4.5690855058E+00  6.2946970907E+00  2.1207981225E-01  1.9635054855E-01  5.3631944720E-01
  1.0334448161E+04  4.6263197092E+00  6.2792287324E+00  2.1841027972E-01  2.0185916977E-01  5.3925953185E-01
  1.0431438127E+04  4.6837395910E+00  6.2639916225E+00  2.2486778103E-01  2.0746005881E-01  5.4219125183E-01
  1.0528428094E+04  4.7414043002E+00  6.2491882140E+00  2.3145364449E-01  2.1315379162E-01  5.4511479042E-01
  1.0625418060E+04  4.7992560552E+00  6.2346062787E+00  2.3816919971E-01  2.1894023981E-01  5.4803033343E-01
  1.0722408027E+04  4.8573429419E+00  6.2203987259E+00  2.4501577760E-01  2.2481988659E-01  5.5093804685E-01
  1.0819397993E+04  4.9156260665E+00  6.2064291215E+00  2.5199471036E-01  2.3079266167E-01  5.5383799879E-01
  1.0916387960E+04  4.9741364594E+00  6.1927868291E+00  2.5910733146E-01  2.3685891321E-01  5.5673023933E-01
  1.1013377926E+04  5.0328502795E+00  6.1793897376E+00  2.6635497567E-01  2.4301861427E-01  5.5961482282E-01
  1.1110367893E+04  5.0917856643E+00  6.1662840659E+00  2.7373897899E-01  2.4927199565E-01  5.6249180739E-01
  1.1207357860E+04  5.1509293150E+00  6.1534224600E+00  2.8127526273E-01  2.5563109759E-01  5.6536125479E-01
  1.1304347826E+04  5.2102913257E+00  6.1408265653E+00  2.8898980492E-01  2.6211618583E-01  5.6822322993E-01
  1.1401337793E+04  5.2698637317E+00  6.1284659958E+00  2.9684715252E-01  2.6869670649E-01  5.7107776365E-01
  1.1498327759E+04  5.3296541426E+00  6.1163546863E+00  3.0484869608E-01  2.7537275385E-01  5.7392482955E-01
  1.1595317726E+04  5.3896539994E+00  6.1044630892E+00  3.1299582762E-01  2.8214427341E-01  5.7676440171E-01
  1.1692307692E+04  5.4498747169E+00  6.0928126949E+00  3.2128994066E-01  2.8901134657E-01  5.7959645847E-01
  1.1789297659E+04  5.5103004726E+00  6.0813602167E+00  3.2973243021E-01  2.9597381636E-01  5.8242098221E-01
  1.1886287625E+04  5.5709535278E+00  6.0701484713E+00  3.3832469273E-01  3.0303180796E-01  5.8523795927E-01
  1.1983277592E+04  5.6318033646E+00  6.0591073102E+00  3.4706812616E-01  3.1018499891E-01  5.8804736755E-01
  1.2080267559E+04  5.6928909062E+00  6.0483132442E+00  3.5596412986E-01  3.1743362749E-01  5.9084913830E-01
  1.2177257525E+04  5.7541627229E+00  6.0376575056E+00  3.6501410464E-01  3.2477712968E-01  5.9364319627E-01
  1.2274247492E+04  5.8156870103E+00  6.0272613489E+00  3.7421945271E-01  3.3221593993E-01  5.9642947067E-01
  1.2371237458E+04  5.8773784056E+00  6.0169669138E+00  3.8358157773E-01  3.3974916241E-01  5.9920789505E-01
  1.2468227425E+04  5.9393418563E+00  6.0069500395E+00  3.9310188472E-01  3.4737752602E-01  6.0197840704E-01
  1.2565217391E+04  6.0014708292E+00  5.9970272676E+00  4.0279317954E-01  3.5510874476E-01  6.0474097864E-01
  1.2662207358E+04  6.0638571160E+00  5.9873403424E+00  4.1265162446E-01  3.6293922115E-01  6.0749557510E-01
  1.2759197324E+04  6.1264298296E+00  5.9777754973E+00  4.2267320520E-01  3.7086382379E-01  6.1024209856E-01
  1.2856187291E+04  6.1892376790E+00  5.9683976449E+00  4.3285934648E-01  3.7888271333E-01  6.1298045485E-01
  1.2953177258E+04  6.2522622346E+00  5.9591773531E+00  4.4321147443E-01  3.8699543931E-01  6.1571055406E-01
  1.3050167224E+04  6.3154908573E+00  5.9500908828E+00  4.5373101663E-01  3.9520155211E-01  6.1843231070E-01
  1.3147157191E+04  6.3789758162E+00  5.9412025887E+00  4.6441940209E-01  4.0350122585E-01  6.2114564244E-01
  1.3244147157E+04  6.4426252803E+00  5.9323927569E+00  4.7527806121E-01  4.1189321031E-01  6.2385042442E-01
  1.3341137124E+04  6.5065777152E+00  5.9238225162E+00  4.8630842583E-01  4.2037847953E-01  6.2654652178E-01
  1.3438127090E+04  6.5706965690E+00  5.9153286184E+00  4.9751192914E-01  4.2895530009E-01  6.2923380454E-01
  1.3535117057E+04  6.6350743414E+00  5.9070098831E+00  5.0889000574E-01  4.3762416132E-01  6.3191214747E-01
  1.3632107023E+04  6.6996717277E+00  5.8988208484E+00  5.2044409161E-01  4.4638424696E-01  6.3458143006E-01
  1.3729096990E+04  6.7644713143E+00  5.8907387811E+00  5.3220486478E-01  4.5525629761E-01  6.3724153635E-01
  1.3826086957E+04  6.8295565847E+00  5.8828440882E+00  5.4419610592E-01  4.6425663406E-01  6.3989235490E-01
  1.3923076923E+04  6.8948065358E+00  5.8750150532E+00  5.5637068460E-01  4.7334771147E-01  6.4253377864E-01
  1.4020066890E+04  6.9603561062E+00  5.8673742039E+00  5.6873009337E-01  4.8253044353E-01  6.4516570484E-01
  1.4117056856E+04  7.0261040414E+00  5.8598260702E+00  5.8127582639E-01  4.9180321810E-01  6.4778803316E-01
  1.4214046823E+04  7.0920743388E+00  5.8523882103E+00  5.9400937938E-01  5.0116571501E-01  6.5040063660E-01
  1.4311036789E+04  7.1583301036E+00  5.8451116389E+00  6.0693224967E-01  5.1061807963E-01  6.5300337652E-01
  1.4408026756E+04  7.2247510536E+00  5.8378931726E+00  6.2004593614E-01  5.2015835198E-01  6.5559612081E-01
  1.4505016722E+04  7.2914879624E+00  5.8308502944E+00  6.3335193921E-01  5.2978763403E-01  6.5817874227E-01
  1.4602006689E+04  7.3584275449E+00  5.8238914735E+00  6.4685176090E-01  5.3950400624E-01  6.6075111854E-01
  1.4698996656E+04  7.4255798125E+00  5.8170215599E+00  6.6054690471E-01  5.4930690428E-01  6.6331313206E-01
  1.4795986622E+04  7.4930483120E+00  5.8103140582E+00  6.7443887571E-01  5.5919691398E-01  6.6586466994E-01
  1.4892976589E+04  7.5606829958E+00  5.8036580405E+00  6.8852918048E-01  5.6917153841E-01  6.6840562388E-01
  1.4989966555E+04  7.6286146375E+00  5.7971417778E+00  7.0281932709E-01  5.7923165578E-01  6.7093589015E-01
  1.5086956522E+04  7.6967897518E+00  5.7907264985E+00  7.1734989771E-01  5.8940229151E-01  6.7345536864E-01
  1.5183946488E+04  7.7651313973E+00  5.7843593606E+00  7.3208928519E-01  5.9965900243E-01  6.7596394618E-01
  1.5280936455E+04  7.8338535748E+00  5.7781746419E+00  7.4703459636E-01  6.1000075951E-01  6.7846150155E-01
  1.5377926421E+04  7.9027481913E+00  5.7720386071E+00  7.6218737001E-01  6.2042413251E-01  6.8094791891E-01
  1.5474916388E+04  7.9718740016E+00  5.7659855038E+00  7.7754914650E-01  6.3092905803E-01  6.8342308734E-01
  1.5571906355E+04  8.0413336129E+00  5.7600740100E+00  7.9312146780E-01  6.4151612082E-01  6.8588690081E-01
  1.5668896321E+04  8.1109615054E+00  5.7542052263E+00  8.0890587746E-01  6.5218227919E-01  6.8833925804E-01
  1.5765886288E+04  8.1808860545E+00  5.7484496158E+00  8.2490392061E-01  6.6292841824E-01  6.9078006250E-01
  1.5862876254E+04  8.2510924809E+00  5.7427968836E+00  8.4111714392E-01  6.7375352424E-01  6.9320922226E-01
  1.5959866221E+04  8.3214679385E+00  5.7371841164E+00  8.5754709563E-01  6.8465513447E-01  6.9562664995E-01
  1.6056856187E+04  8.3921997774E+00  5.7317075039E+00  8.7419532553E-01  6.9563501302E-01  6.9803225769E-01
  1.6153846154E+04  8.4631676654E+00  5.7263028111E+00  8.9106338494E-01  7.0669058959E-01  7.0042594719E-01
  1.6250836120E+04  8.5343054705E+00  5.7209355225E+00  9.0815282671E-01  7.1781995737E-01  7.0280762307E-01
  1.6347826087E+04  8.6058517946E+00  5.7157204039E+00  9.2546520522E-01  7.2902571424E-01  7.0517719482E-01
  1.6444816054E+04  8.6775962686E+00  5.7105536853E+00  9.4300207635E-01  7.4030384828E-01  7.0753457674E-01
  1.6541806020E+04  8.7495142678E+00  5.7054231599E+00  9.6076499749E-01  7.5165298916E-01  7.0987968788E-01
  1.6638795987E+04  8.8218782319E+00  5.7004517672E+00  9.7875552754E-01  7.6307636175E-01  7.1221245187E-01
  1.6735785953E+04  8.8944148774E+00  5.6955135634E+00  9.9697522688E-01  7.7456883114E-01  7.1453279696E-01
  1.6832775920E+04  8.9671436907E+00  5.6906167434E+00  1.0154256574E+00  7.8612966237E-01  7.1684065582E-01
  1.6929765886E+04  9.0403145857E+00  5.6858670916E+00  1.0341083824E+00  7.9776185226E-01  7.1913596109E-01
  1.7026755853E+04  9.1136594333E+00  5.6811485032E+00  1.0530249667E+00  8.0946015784E-01  7.2141863874E-01
  1.7123745819E+04  9.1872014384E+00  5.6764701976E+00  1.0721769765E+00  8.2122388469E-01  7.2368861797E-01
  1.7220735786E+04  9.2611955948E+00  5.6719337694E+00  1.0915659797E+00  8.3305622950E-01  7.2594583268E-01
  1.7317725753E+04  9.3353651046E+00  5.6674264144E+00  1.1111935452E+00  8.4495162729E-01  7.2819022137E-01
  1.7414715719E+04  9.4097209418E+00  5.6629521800E+00  1.1310612439E+00  8.5690916106E-01  7.3042172705E-01
  1.7511705686E+04  9.4845549226E+00  5.6586209639E+00  1.1511905199E+00  8.6894409605E-01  7.3264029717E-01
  1.7608695652E+04  9.5595657843E+00  5.6543169558E+00  1.1717106196E+00  8.8112222233E-01  7.3484588349E-01
  1.7705685619E+04  9.6347529671E+00  5.6500398362E+00  1.1924805484E+00  8.9336050542E-01  7.3703845647E-01
  1.7802675585E+04  9.7104231024E+00  5.6458996457E+00  1.2135019506E+00  9.0566328689E-01  7.3921803743E-01
  1.7899665552E+04  9.7862904911E+00  5.6417917020E+00  1.2347764722E+00  9.1802445500E-01  7.4138459028E-01
  1.7996655518E+04  9.8623358448E+00  5.6377089220E+00  1.2563057607E+00  9.3044249585E-01  7.4353807510E-01
  1.8093645485E+04  9.9388251900E+00  5.6337426393E+00  1.2780914655E+00  9.4292118455E-01  7.4567845613E-01
  1.8190635452E+04  1.0015563455E+01  5.6298239727E+00  1.3001352377E+00  9.5545587363E-01  7.4780570160E-01
  1.8287625418E+04  1.0092481422E+01  5.6259288485E+00  1.3224387298E+00  9.6804410235E-01  7.4991978372E-01
  1.8384615385E+04  1.0169782980E+01  5.6221242839E+00  1.3450035963E+00  9.8068861121E-01  7.5202067854E-01
  1.8481605351E+04  1.0247406696E+01  5.6183884779E+00  1.3678314931E+00  9.9338716969E-01  7.5410835722E-01
  1.8578595318E+04  1.0325211946E+01  5.6146746888E+00  1.3909240778E+00  1.0061358970E+00  7.5618275682E-01
  1.8675585284E+04  1.0403317021E+01  5.6110201519E+00  1.4142830099E+00  1.0189359483E+00  7.5824387683E-01
  1.8772575251E+04  1.0481840994E+01  5.6074611339E+00  1.4379126010E+00  1.0317899915E+00  7.6029173018E-01
  1.8869565217E+04  1.0560548426E+01  5.6039226966E+00  1.4618133106E+00  1.0446915235E+00  7.6232633239E-01
  1.8966555184E+04  1.0639446556E+01  5.6004069627E+00  1.4859854750E+00  1.0576387843E+00  7.6434770145E-01
  1.9063545151E+04  1.0718885812E+01  5.5970189806E+00  1.5104307617E+00  1.0706379019E+00  7.6635585775E-01
  1.9160535117E+04  1.0798510544E+01  5.5936502259E+00  1.5351508397E+00  1.0836804036E+00  7.6835082402E-01
  1.9257525084E+04  1.0878320243E+01  5.5903004930E+00  1.5601473797E+00  1.0967650535E+00  7.7033261227E-01
  1.9354515050E+04  1.0958559202E+01  5.5870401058E+00  1.5854220539E+00  1.1098959079E+00  7.7230119312E-01
  1.9451505017E+04  1.1039116563E+01  5.5838356580E+00  1.6109765363E+00  1.1230695185E+00  7.7425655162E-01
  1.9548494983E+04  1.1119861008E+01  5.5806489728E+00  1.6368125021E+00  1.1362818553E+00  7.7619867794E-01
  1.9645484950E+04  1.1200877719E+01  5.5775035765E+00  1.6629316286E+00  1.1495335894E+00  7.7812756596E-01
  1.9742474916E+04  1.1282383235E+01  5.5744583337E+00  1.6893355942E+00  1.1628284527E+00  7.8004321323E-01
  1.9839464883E+04  1.1364078046E+01  5.5714296652E+00  1.7160260791E+00  1.1761586288E+00  7.8194562081E-01
  1.9936454849E+04  1.1445961663E+01  5.5684174006E+00  1.7430047651E+00  1.1895228815E+00  7.8383479314E-01
  2.0033444816E+04  1.1528325247E+01  5.5654984817E+00  1.7702868293E+00  1.2029329833E+00  7.8571073477E-01
  2.0130434783E+04  1.1610985596E+01  5.5626230372E+00  1.7978868184E+00  1.2163893733E+00  7.8757344795E-01
  2.0227424749E+04  1.1693837055E+01  5.5597628885E+00  1.8257811404E+00  1.2298766218E+00  7.8942293787E-01
  2.0324414716E+04  1.1776954156E+01  5.5569371424E+00  1.8539714970E+00  1.2433952954E+00  7.9125921317E-01
  2.0421404682E+04  1.1860591804E+01  5.5542102926E+00  1.8824595914E+00  1.2569504266E+00  7.9308228580E-01
  2.0518394649E+04  1.1944422917E+01  5.5514976918E+00  1.9112471285E+00  1.2705330408E+00  7.9489217098E-01
  2.0615384615E+04  1.2028447025E+01  5.5487991986E+00  1.9403358147E+00  1.2841419141E+00  7.9668888698E-01
  2.0712374582E+04  1.2112900004E+01  5.5461733576E+00  1.9697273581E+00  1.2977817516E+00  7.9847243391E-01
  2.0809364548E+04  1.2197721361E+01  5.5436039327E+00  1.9994234682E+00  1.3114500112E+00  8.0024284006E-01
  2.0906354515E+04  1.2282738117E+01  5.5410476378E+00  2.0294258561E+00  1.3251412038E+00  8.0200016228E-01
  2.1003344482E+04  1.2367949812E+01  5.5385043455E+00  2.0597362345E+00  1.3388541221E+00  8.0374445886E-01
  2.1100334448E+04  1.2453732862E+01  5.5360644655E+00  2.0903563177E+00  1.3525974131E+00  8.0547578950E-01
  2.1197324415E+04  1.2539752874E+01  5.5336462579E+00  2.1212878215E+00  1.3663613702E+00  8.0719421518E-01
  2.1294314381E+04  1.2625970279E+01  5.5312401387E+00  2.1525324631E+00  1.3801437908E+00  8.0889979807E-01
  2.1391304348E+04  1.2712456547E+01  5.5288628388E+00  2.1840919614E+00  1.3939454244E+00  8.1059257990E-01
  2.1488294314E+04  1.2799490403E+01  5.5265787990E+00  2.2159680367E+00  1.4077727390E+00  8.1227257841E-01
  2.1585284281E+04  1.2886724144E+01  5.5243059826E+00  2.2481624111E+00  1.4216153121E+00  8.1393981763E-01
  2.1682274247E+04  1.2974157326E+01  5.5220442843E+00  2.2806768078E+00  1.4354719772E+00  8.1559432459E-01
  2.1779264214E+04  1.3061948420E+01  5.5198296427E+00  2.3135129517E+00  1.4493460155E+00  8.1723612918E-01
  2.1876254181E+04  1.3150209095E+01  5.5176864359E+00  2.3466725693E+00  1.4632395657E+00  8.1886526403E-01
  2.1973244147E+04  1.3238671751E+01  5.5155535367E+00  2.3801573885E+00  1.4771440886E+00  8.2048176449E-01
  2.2070234114E+04  1.3327335956E+01  5.5134308505E+00  2.4139691387E+00  1.4910584464E+00  8.2208566843E-01
  2.2167224080E+04  1.3416421389E+01  5.5113666498E+00  2.4481095507E+00  1.5049878850E+00  8.2367701625E-01
  2.2264214047E+04  1.3505924124E+01  5.5093590658E+00  2.4825803570E+00  1.5189313546E+00  8.2525585068E-01
  2.2361204013E+04  1.3595630994E+01  5.5073609349E+00  2.5173845551E+00  1.5328821048E+00  8.2682221679E-01
  2.2458193980E+04  1.3685541577E+01  5.5053721720E+00  2.5527674278E+00  1.5469284539E+00  8.2837616183E-01
  2.2555183946E+04  1.3775909197E+01  5.5034467356E+00  2.5884916570E+00  1.5609873723E+00  8.2991773517E-01
  2.2652173913E+04  1.3866669338E+01  5.5015698695E+00  2.6245590429E+00  1.5750560110E+00  8.3144698689E-01
  2.2749163880E+04  1.3957635824E+01  5.4997016585E+00  2.6609713874E+00  1.5891277501E+00  8.3296396029E-01
  2.2846153846E+04  1.4048808242E+01  5.4978420259E+00  2.6977304940E+00  1.6032014967E+00  8.3446869737E-01
  2.2943143813E+04  1.4140444184E+01  5.4960441793E+00  2.7348381681E+00  1.6172841562E+00  8.3596124251E-01
  2.3040133779E+04  1.4232477174E+01  5.4942934091E+00  2.7722962164E+00  1.6313727917E+00  8.3744164244E-01
  2.3137123746E+04  1.4324718775E+01  5.4925505477E+00  2.8101064474E+00  1.6454605667E+00  8.3890994606E-01
  2.3234113712E+04  1.4417168584E+01  5.4908155264E+00  2.8482706715E+00  1.6595464274E+00  8.4036620440E-01
  2.3331103679E+04  1.4510057219E+01  5.4891345616E+00  2.8867907002E+00  1.6736367060E+00  8.4181047053E-01
  2.3428093645E+04  1.4603378594E+01  5.4875055270E+00  2.9256683471E+00  1.6877303605E+00  8.4324279946E-01
  2.3525083612E+04  1.4696910901E+01  5.4858837030E+00  2.9649054272E+00  1.7018193550E+00  8.4466324803E-01
  2.3622073579E+04  1.4790653745E+01  5.4842690281E+00  3.0045037572E+00  1.7159026772E+00  8.4607187486E-01
  2.3719063545E+04  1.4884777638E+01  5.4826946715E+00  3.0444651553E+00  1.7299849417E+00  8.4746874024E-01
  2.3816053512E+04  1.4979403017E+01  5.4811832552E+00  3.0847914414E+00  1.7440692842E+00  8.4885390606E-01
  2.3913043478E+04  1.5074241704E+01  5.4796783958E+00  3.1254844370E+00  1.7581453370E+00  8.5022743210E-01
  2.4010033445E+04  1.5169293312E+01  5.4781800382E+00  3.1665459652E+00  1.7722121310E+00  8.5158937234E-01
  2.4107023411E+04  1.5264633167E+01  5.4767024206E+00  3.2079778507E+00  1.7862712647E+00  8.5293978171E-01
  2.4204013378E+04  1.5360578248E+01  5.4753047310E+00  3.2497819197E+00  1.8003326396E+00  8.5427871704E-01
  2.4301003344E+04  1.5456739067E+01  5.4739129857E+00  3.2919600000E+00  1.8143822714E+00  8.5560623691E-01
  2.4397993311E+04  1.5553115245E+01  5.4725271357E+00  3.3345139210E+00  1.8284192356E+00  8.5692240158E-01
  2.4494983278E+04  1.5649706406E+01  5.4711471327E+00  3.3774455138E+00  1.8424426187E+00  8.5822727291E-01
  2.4591973244E+04  1.5746930410E+01  5.4698491205E+00  3.4207566109E+00  1.8564661086E+00  8.5952091428E-01
  2.4688963211E+04  1.5844429183E+01  5.4685668459E+00  3.4644490464E+00  1.8704765425E+00  8.6080339050E-01
  2.4785953177E+04  1.5942145808E+01  5.4672898976E+00  3.5085246559E+00  1.8844710822E+00  8.6207476773E-01
  2.4882943144E+04  1.6040079917E+01  5.4660182328E+00  3.5529852766E+00  1.8984488605E+00  8.6333511340E-01
  2.4979933110E+04  1.6138483409E+01  5.4647965346E+00  3.5978327474E+00  1.9124180416E+00  8.6458449708E-01
  2.5076923077E+04  1.6237335131E+01  5.4636202538E+00  3.6431535859E+00  1.9264008777E+00  8.6582301779E-01
  2.5173913043E+04  1.6336407244E+01  5.4624487655E+00  3.6888891232E+00  1.9403709706E+00  8.6705075668E-01
  2.5270903010E+04  1.6435699386E+01  5.4612820317E+00  3.7350193746E+00  1.9543213197E+00  8.6826778073E-01
  2.5367892977E+04  1.6535256386E+01  5.4601278947E+00  3.7815462088E+00  1.9682527742E+00  8.6947415805E-01
  2.5464882943E+04  1.6635470110E+01  5.4590541417E+00  3.8284714962E+00  1.9821790905E+00  8.7066995781E-01
  2.5561872910E+04  1.6735906760E+01  5.4579846805E+00  3.8757971085E+00  1.9960836094E+00  8.7185525015E-01
  2.5658862876E+04  1.6836565983E+01  5.4569194779E+00  3.9235249194E+00  2.0099655516E+00  8.7303010614E-01
  2.5755852843E+04  1.6937447429E+01  5.4558585009E+00  3.9716568039E+00  2.0238241497E+00  8.7419459769E-01
  2.5852842809E+04  1.7038832223E+01  5.4548499223E+00  4.0201946386E+00  2.0376694006E+00  8.7534879751E-01
  2.5949832776E+04  1.7140639742E+01  5.4538791623E+00  4.0691403020E+00  2.0514976544E+00  8.7649277903E-01
  2.6046822742E+04  1.7242672353E+01  5.4529121955E+00  4.1184956737E+00  2.0653006846E+00  8.7762661636E-01
  2.6143812709E+04  1.7344929713E+01  5.4519489933E+00  4.1682626353E+00  2.0790777716E+00  8.7875037894E-01
  2.6240802676E+04  1.7447412487E+01  5.4509896975E+00  4.2184430697E+00  2.0928282469E+00  8.7986412315E-01
  2.6337792642E+04  1.7550596834E+01  5.4501144784E+00  4.2690388615E+00  2.1065702622E+00  8.8096791263E-01
  2.6434782609E+04  1.7654008766E+01  5.4492426161E+00  4.3200518967E+00  2.1202845923E+00  8.8206181253E-01
  2.6531772575E+04  1.7757647950E+01  5.4483740856E+00  4.3714840631E+00  2.1339705647E+00  8.8314588904E-01
  2.6628762542E+04  1.7861514049E+01  5.4475088620E+00  4.4233372499E+00  2.1476275186E+00  8.8422020928E-01
  2.6725752508E+04  1.7965767523E+01  5.4466736958E+00  4.4756133479E+00  2.1612613478E+00  8.8528484129E-01
  2.6822742475E+04  1.8070564347E+01  5.4458939601E+00  4.5283142493E+00  2.1748779002E+00  8.8633985392E-01
  2.6919732441E+04  1.8175590897E+01  5.4451171498E+00  4.5814418480E+00  2.1884638631E+00  8.8738531679E-01
  2.7016722408E+04  1.8280846847E+01  5.4443432435E+00  4.6349980394E+00  2.2020186222E+00  8.8842130020E-01
  2.7113712375E+04  1.8386331872E+01  5.4435722199E+00  4.6889847204E+00  2.2155415750E+00  8.8944787514E-01
  2.7210702341E+04  1.8492327152E+01  5.4428501875E+00  4.7434037894E+00  2.2290439573E+00  8.9046511243E-01
  2.7307692308E+04  1.8598746250E+01  5.4421622877E+00  4.7982571464E+00  2.2425217134E+00  8.9147307864E-01
  2.7404682274E+04  1.8705397204E+01  5.4414769134E+00  4.8535495981E+00  2.2559668867E+00  8.9247183908E-01
  2.7501672241E+04  1.8812279696E+01  5.4407940462E+00  4.9092925855E+00  2.2693809377E+00  8.9346145986E-01
  2.7598662207E+04  1.8919393409E+01  5.4401136684E+00  4.9654758820E+00  2.2827606696E+00  8.9444200785E-01
  2.7695652174E+04  1.9027100722E+01  5.4394942872E+00  5.0221013968E+00  2.2961212576E+00  8.9541355062E-01
  2.7792642140E+04  1.9135151472E+01  5.4388947906E+00  5.0791710403E+00  2.3094515049E+00  8.9637615638E-01
  2.7889632107E+04  1.9243436195E+01  5.4382974482E+00  5.1366867245E+00  2.3227461898E+00  8.9732989392E-01
  2.7986622074E+04  1.9351954583E+01  5.4377022449E+00  5.1946503632E+00  2.3360048099E+00  8.9827483257E-01
  2.8083612040E+04  1.9460706326E+01  5.4371091655E+00  5.2530638712E+00  2.3492268741E+00  8.9921104211E-01
  2.8180602007E+04  1.9570095109E+01  5.4365824304E+00  5.3119291651E+00  2.3624299189E+00  9.0013859275E-01
  2.8277591973E+04  1.9679786468E+01  5.4360681028E+00  5.3712481631E+00  2.3755987210E+00  9.0105755294E-01
  2.8374581940E+04  1.9789713905E+01  5.4355555846E+00  5.4310227845E+00  2.3887298802E+00  9.0196798755E-01
  2.8471571906E+04  1.9899877118E+01  5.4350448634E+00  5.4912549503E+00  2.4018229478E+00  9.0286996161E-01
  2.8568561873E+04  2.0010275808E+01  5.4345359268E+00  5.5519465831E+00  2.4148774859E+00  9.0376354075E-01
  2.8665551839E+04  2.0121314804E+01  5.4340922782E+00  5.6130996069E+00  2.4279116449E+00  9.0464879110E-01
  2.8762541806E+04  2.0232655308E+01  5.4336600688E+00  5.6747159469E+00  2.4409096255E+00  9.0552577929E-01
  2.8859531773E+04  2.0344233980E+01  5.4332293485E+00  5.7367975301E+00  2.4538681392E+00  9.0639457233E-01
  2.8956521739E+04  2.0456050525E+01  5.4328001074E+00  5.7993462848E+00  2.4667867888E+00  9.0725523766E-01
  2.9053511706E+04  2.0568104653E+01  5.4323723353E+00  5.8623641408E+00  2.4796651871E+00  9.0810784299E-01
  2.9150501672E+04  2.0680762010E+01  5.4320026289E+00  5.9258530295E+00  2.4925201917E+00  9.0895245636E-01
  2.9247491639E+04  2.0793759771E+01  5.4316496572E+00  5.9898148833E+00  2.5053391969E+00  9.0978914485E-01
  2.9344481605E+04  2.0906997774E+01  5.4312978769E+00  6.0542516366E+00  2.5181171562E+00  9.1061797200E-01
  2.9441471572E+04  2.1020475733E+01  5.4309472800E+00  6.1191652248E+00  2.5308537211E+00  9.1143900100E-01
  2.9538461538E+04  2.1134193363E+01  5.4305978587E+00  6.1845575851E+00  2.5435485532E+00  9.1225229546E-01
  2.9635451505E+04  2.1248436733E+01  5.4302933386E+00  6.2504306558E+00  2.5562151588E+00  9.1305791936E-01
  2.9732441472E+04  2.1363099439E+01  5.4300168817E+00  6.3167863768E+00  2.5688481975E+00  9.1385593701E-01
  2.9829431438E+04  2.1478004443E+01  5.4297413392E+00  6.3836266895E+00  2.5814388434E+00  9.1464641301E-01
  2.9926421405E+04  2.1593151467E+01  5.4294667051E+00  6.4509535366E+00  2.5939867946E+00  9.1542941218E-01
  3.0023411371E+04  2.1708540234E+01  5.4291929734E+00  6.5188707716E+00  2.6065080513E+00  9.1620499955E-01
  3.0120401338E+04  2.1824336635E+01  5.4289452232E+00  6.5876033657E+00  2.6190452634E+00  9.1697324049E-01
  3.0217391304E+04  2.1940670875E+01  5.4287426396E+00  6.6568358662E+00  2.6315533650E+00  9.1773420579E-01
  3.0314381271E+04  2.2057249447E+01  5.4285407128E+00  6.7265702835E+00  2.6440175969E+00  9.1848795777E-01
  3.0411371237E+04  2.2174072080E+01  5.4283394384E+00  6.7968086295E+00  2.6564376947E+00  9.1923455441E-01
  3.0508361204E+04  2.2291138502E+01  5.4281388123E+00  6.8675529179E+00  2.6688134027E+00  9.1997405409E-01
  3.0605351171E+04  2.2408454658E+01  5.4279397590E+00  6.9388051637E+00  2.6811447896E+00  9.2070651560E-01
  3.0702341137E+04  2.2526464896E+01  5.4278083887E+00  7.0105673835E+00  2.6934542605E+00  9.2143199808E-01
  3.0799331104E+04  2.2644721463E+01  5.4276774359E+00  7.0828415957E+00  2.7057189103E+00  9.2215056092E-01
  3.0896321070E+04  2.2763224093E+01  5.4275468980E+00  7.1556298199E+00  2.7179385164E+00  9.2286226382E-01
  3.0993311037E+04  2.2881972524E+01  5.4274167723E+00  7.2289340775E+00  2.7301128648E+00  9.2356716666E-01
  3.1090301003E+04  2.3000966495E+01  5.4272870564E+00  7.3027563915E+00  2.7422417498E+00  9.2426532951E-01
  3.1187290970E+04  2.3120464931E+01  5.4271959705E+00  7.3770987862E+00  2.7543384972E+00  9.2495681257E-01
