#[MATERIAL DEFINITION FOR MC-GPU: interaction mean free path and sampling data from PENELOPE 2006]
#[MATERIAL NAME]
# MATERIAL11                                                    
#[NOMINAL DENSITY (g/cm^3)]
#   1.00000000
#[NUMBER OF DATA VALUES]
#   1495
#[MEAN FREE PATHS (cm) (ie, average distance between interactions)]
#[Energy (eV)     | Rayleigh        | Compton         | Photoelectric   | TOTAL (+pair prod) (cm) | Rayleigh: max cumul prob F^2]
  5.0000000000E+03  1.8222384916E+00  7.9272647580E+00  1.3502902585E-02  1.3380956406E-02  2.9467313006E-01
  5.0969899666E+03  1.8593481868E+00  7.8646902223E+00  1.4246901361E-02  1.4113195607E-02  2.9956040273E-01
  5.1939799331E+03  1.8967382496E+00  7.8047079012E+00  1.5016476570E-02  1.4870139116E-02  3.0438779981E-01
  5.2909698997E+03  1.9344024010E+00  7.7471648529E+00  1.5811993833E-02  1.5652105982E-02  3.0915793837E-01
  5.3879598662E+03  1.9723342781E+00  7.6919190678E+00  1.6633816744E-02  1.6459411597E-02  3.1387334245E-01
  5.4849498328E+03  2.0105274560E+00  7.6388385276E+00  1.7482548634E-02  1.7292604193E-02  3.1853645058E-01
  5.5819397993E+03  2.0489754683E+00  7.5878003608E+00  1.8361228638E-02  1.8154610814E-02  3.2314962274E-01
  5.6789297659E+03  2.0876718275E+00  7.5386900834E+00  1.9267531452E-02  1.9043108136E-02  3.2771512036E-01
  5.7759197324E+03  2.1266100461E+00  7.4914009149E+00  2.0201879021E-02  1.9958460748E-02  3.3223502284E-01
  5.8729096990E+03  2.1657836560E+00  7.4458331612E+00  2.1164654371E-02  2.0900993198E-02  3.3671132546E-01
  5.9698996656E+03  2.2051862350E+00  7.4018936520E+00  2.2156146000E-02  2.1870935917E-02  3.4114596370E-01
  6.0668896321E+03  2.2448117672E+00  7.3594949902E+00  2.3179370155E-02  2.2871173334E-02  3.4554076462E-01
  6.1638795987E+03  2.2846552607E+00  7.3185547019E+00  2.4233446104E-02  2.3900788217E-02  3.4989740864E-01
  6.2608695652E+03  2.3247126906E+00  7.2789949444E+00  2.5320610143E-02  2.4961894810E-02  3.5421752278E-01
  6.3578595318E+03  2.3649801335E+00  7.2407427812E+00  2.6447431685E-02  2.6060805928E-02  3.5850271856E-01
  6.4548494983E+03  2.4054632745E+00  7.2037632991E+00  2.7605961201E-02  2.7189726786E-02  3.6275440070E-01
  6.5518394649E+03  2.4461603322E+00  7.1679982481E+00  2.8800669904E-02  2.8352926747E-02  3.6697382926E-01
  6.6488294314E+03  2.4870575254E+00  7.1333522711E+00  3.0029704058E-02  2.9548531311E-02  3.7116224138E-01
  6.7458193980E+03  2.5281509165E+00  7.0997683826E+00  3.1292026619E-02  3.0775463309E-02  3.7532085301E-01
  6.8428093645E+03  2.5694366319E+00  7.0671930882E+00  3.2588032677E-02  3.2034032306E-02  3.7945086058E-01
  6.9397993311E+03  2.6109108752E+00  7.0355761506E+00  3.3918116070E-02  3.3324544069E-02  3.8355340175E-01
  7.0367892977E+03  2.6525709563E+00  7.0048736407E+00  3.5285591494E-02  3.4650118590E-02  3.8762938050E-01
  7.1337792642E+03  2.6944440909E+00  6.9751362372E+00  3.6693042746E-02  3.6013165083E-02  3.9167962402E-01
  7.2307692308E+03  2.7364982531E+00  6.9462246376E+00  3.8136237644E-02  3.7409507230E-02  3.9570495277E-01
  7.3277591973E+03  2.7787310690E+00  6.9180992468E+00  3.9615577102E-02  3.8839445269E-02  3.9970618064E-01
  7.4247491639E+03  2.8211401445E+00  6.8907228253E+00  4.1131460892E-02  4.0303275470E-02  4.0368411490E-01
  7.5217391304E+03  2.8637412699E+00  6.8641109511E+00  4.2684287663E-02  4.1801295854E-02  4.0763947191E-01
  7.6187290970E+03  2.9065385577E+00  6.8382438588E+00  4.4274454954E-02  4.3333797615E-02  4.1157280112E-01
  7.7157190635E+03  2.9495068933E+00  6.8130253615E+00  4.5902359210E-02  4.4901058223E-02  4.1548463613E-01
  7.8127090301E+03  2.9926437903E+00  6.7884259641E+00  4.7568395799E-02  4.6503357899E-02  4.1937551130E-01
  7.9096989967E+03  3.0359755776E+00  6.7644898754E+00  4.9272959025E-02  4.8140983645E-02  4.2324596163E-01
  8.0066889632E+03  3.0794928075E+00  6.7411677092E+00  5.1018234920E-02  4.9815915349E-02  4.2709649078E-01
  8.1036789298E+03  3.1231735175E+00  6.7183838888E+00  5.2827856537E-02  5.1550538351E-02  4.3092746298E-01
  8.2006688963E+03  3.1670246142E+00  6.6961363088E+00  5.4678763535E-02  5.3322726876E-02  4.3473921115E-01
  8.2976588629E+03  3.2110841252E+00  6.6744880696E+00  5.6571385521E-02  5.5132789194E-02  4.3853207281E-01
  8.3946488294E+03  3.2553040578E+00  6.6533104141E+00  5.8506151292E-02  5.6980992287E-02  4.4230638964E-01
  8.4916387960E+03  3.2996840119E+00  6.6325879836E+00  6.0483498135E-02  5.8867627219E-02  4.4606247936E-01
  8.5886287625E+03  3.3442842770E+00  6.6124249005E+00  6.2503980622E-02  6.0793122448E-02  4.4980055533E-01
  8.6856187291E+03  3.3890415086E+00  6.5926740449E+00  6.4567896663E-02  6.2757600353E-02  4.5352081266E-01
  8.7826086957E+03  3.4339610584E+00  6.5733338171E+00  6.6675672108E-02  6.4761333201E-02  4.5722345276E-01
  8.8795986622E+03  3.4790994037E+00  6.5544916671E+00  6.8827732045E-02  6.6804617444E-02  4.6090868227E-01
  8.9765886288E+03  3.5243905685E+00  6.5360112831E+00  7.1024500809E-02  6.8887679287E-02  4.6457666790E-01
  9.0735785953E+03  3.5698604300E+00  6.5179269163E+00  7.3277065469E-02  7.1020806913E-02  4.6822751003E-01
  9.1705685619E+03  3.6155336045E+00  6.5002630452E+00  7.5579222324E-02  7.3198008258E-02  4.7186131033E-01
  9.2675585284E+03  3.6613554120E+00  6.4829177741E+00  7.7928103711E-02  7.5416399814E-02  4.7547817744E-01
  9.3645484950E+03  3.7073901389E+00  6.4659799844E+00  8.0324147128E-02  7.7676276745E-02  4.7907821649E-01
  9.4615384615E+03  3.7535971680E+00  6.4493723713E+00  8.2767789426E-02  7.9977863770E-02  4.8266147565E-01
  9.5585284281E+03  3.7999693626E+00  6.4330758552E+00  8.5259672985E-02  8.2321593395E-02  4.8622798698E-01
  9.6555183946E+03  3.8465653563E+00  6.4171595247E+00  8.7800112345E-02  8.4707633954E-02  4.8977779007E-01
  9.7525083612E+03  3.8933036466E+00  6.4015011146E+00  9.0389471869E-02  8.7136098031E-02  4.9331093679E-01
  9.8494983278E+03  3.9402686976E+00  6.3862024972E+00  9.3028186190E-02  8.9607279262E-02  4.9682746799E-01
  9.9464882943E+03  3.9873977437E+00  6.3711708872E+00  9.5716689328E-02  9.2121357869E-02  5.0032734519E-01
  1.0043478261E+04  4.0347157273E+00  6.3564299619E+00  9.8466555085E-02  9.4688877085E-02  5.0381052982E-01
  1.0140468227E+04  4.0822389468E+00  6.3419875527E+00  1.0128164517E-01  9.7313181134E-02  5.0727699162E-01
  1.0237458194E+04  4.1299163094E+00  6.3277774219E+00  1.0414902703E-01  9.9982053490E-02  5.1072670817E-01
  1.0334448161E+04  4.1778384360E+00  6.3138911842E+00  1.0706915639E-01  1.0269579470E-01  5.1415966456E-01
  1.0431438127E+04  4.2258913130E+00  6.3001968436E+00  1.1004248851E-01  1.0545452268E-01  5.1757585296E-01
  1.0528428094E+04  4.2742088064E+00  6.2868277193E+00  1.1306947814E-01  1.0825857149E-01  5.2097526711E-01
  1.0625418060E+04  4.3226629538E+00  6.2736435829E+00  1.1615057958E-01  1.1110803056E-01  5.2435784446E-01
  1.0722408027E+04  4.3713623989E+00  6.2607465060E+00  1.1928624661E-01  1.1400320631E-01  5.2772349829E-01
  1.0819397993E+04  4.4202217200E+00  6.2480451145E+00  1.2247693259E-01  1.1694421257E-01  5.3107215133E-01
  1.0916387960E+04  4.4693111863E+00  6.2355999410E+00  1.2572309037E-01  1.1993131295E-01  5.3440373448E-01
  1.1013377926E+04  4.5185790497E+00  6.2233554239E+00  1.2902517236E-01  1.2296464099E-01  5.3771818643E-01
  1.1110367893E+04  4.5680667396E+00  6.2113432329E+00  1.3238363050E-01  1.2604442335E-01  5.4101545336E-01
  1.1207357860E+04  4.6177459520E+00  6.1995311888E+00  1.3580660058E-01  1.2917775819E-01  5.4429548860E-01
  1.1304347826E+04  4.6676401944E+00  6.1879341884E+00  1.3930747355E-01  1.3237648757E-01  5.4755823271E-01
  1.1401337793E+04  4.7177329735E+00  6.1765315750E+00  1.4286728714E-01  1.3562315227E-01  5.5080359028E-01
  1.1498327759E+04  4.7680422173E+00  6.1653330172E+00  1.4648651391E-01  1.3891794754E-01  5.5403147046E-01
  1.1595317726E+04  4.8185501656E+00  6.1543180525E+00  1.5016562603E-01  1.4226101893E-01  5.5724179041E-01
  1.1692307692E+04  4.8692829739E+00  6.1435021553E+00  1.5390509535E-01  1.4565256244E-01  5.6043447512E-01
  1.1789297659E+04  4.9202070513E+00  6.1328542262E+00  1.5770539335E-01  1.4909269067E-01  5.6360945704E-01
  1.1886287625E+04  4.9713720951E+00  6.1224061033E+00  1.6156699120E-01  1.5258162174E-01  5.6676667585E-01
  1.1983277592E+04  5.0227125929E+00  6.1121056834E+00  1.6549035971E-01  1.5611941112E-01  5.6990606444E-01
  1.2080267559E+04  5.0743186456E+00  6.1020112791E+00  1.6947596935E-01  1.5970632583E-01  5.7302753309E-01
  1.2177257525E+04  5.1260751597E+00  6.0920398528E+00  1.7352429027E-01  1.6334233424E-01  5.7613099770E-01
  1.2274247492E+04  5.1781310913E+00  6.0822858835E+00  1.7763579228E-01  1.6702778517E-01  5.7921638193E-01
  1.2371237458E+04  5.2303024955E+00  6.0726258769E+00  1.8181094487E-01  1.7076252347E-01  5.8228361694E-01
  1.2468227425E+04  5.2828172842E+00  6.0631997906E+00  1.8605021717E-01  1.7454701951E-01  5.8533264114E-01
  1.2565217391E+04  5.3354462884E+00  6.0538612080E+00  1.9038038509E-01  1.7840412552E-01  5.8836340324E-01
  1.2662207358E+04  5.3883850014E+00  6.0447248716E+00  1.9478970419E-01  1.8232340244E-01  5.9137587265E-01
  1.2759197324E+04  5.4414842564E+00  6.0356983927E+00  1.9926609982E-01  1.8629365393E-01  5.9436998124E-01
  1.2856187291E+04  5.4948424073E+00  6.0268352124E+00  2.0381006589E-01  1.9031515087E-01  5.9734565933E-01
  1.2953177258E+04  5.5484228234E+00  6.0181110445E+00  2.0842209609E-01  1.9438793212E-01  6.0030284465E-01
  1.3050167224E+04  5.6021977749E+00  6.0095067517E+00  2.1310268392E-01  1.9851203922E-01  6.0324148212E-01
  1.3147157191E+04  5.6562704496E+00  6.0010756480E+00  2.1785232266E-01  2.0268775187E-01  6.0616152355E-01
  1.3244147157E+04  5.7104618384E+00  5.9927182130E+00  2.2267150537E-01  2.0691481408E-01  6.0906291990E-01
  1.3341137124E+04  5.7650347173E+00  5.9845696794E+00  2.2756072491E-01  2.1119380795E-01  6.1194561181E-01
  1.3438127090E+04  5.8197314590E+00  5.9764928246E+00  2.3252047393E-01  2.1552430184E-01  6.1480954503E-01
  1.3535117057E+04  5.8747222753E+00  5.9685715339E+00  2.3755124488E-01  2.1990669733E-01  6.1765467246E-01
  1.3632107023E+04  5.9299357747E+00  5.9607670963E+00  2.4265353000E-01  2.2434091034E-01  6.2048095389E-01
  1.3729096990E+04  5.9853387961E+00  5.9530604677E+00  2.4783085627E-01  2.2882950586E-01  6.2328835587E-01
  1.3826086957E+04  6.0410805580E+00  5.9455206794E+00  2.5308600593E-01  2.3337478190E-01  6.2607685945E-01
  1.3923076923E+04  6.0969463390E+00  5.9380430478E+00  2.5841441488E-01  2.3797198285E-01  6.2884642721E-01
  1.4020066890E+04  6.1531705547E+00  5.9307340081E+00  2.6381657810E-01  2.4262166911E-01  6.3159701388E-01
  1.4117056856E+04  6.2095783388E+00  5.9235105182E+00  2.6929299034E-01  2.4732347424E-01  6.3432858135E-01
  1.4214046823E+04  6.2662094398E+00  5.9163882520E+00  2.7484414617E-01  2.5207750737E-01  6.3704109843E-01
  1.4311036789E+04  6.3231709962E+00  5.9094120058E+00  2.8047053996E-01  2.5688404756E-01  6.3973454065E-01
  1.4408026756E+04  6.3802603600E+00  5.9024910231E+00  2.8617266590E-01  2.6174260784E-01  6.4240889004E-01
  1.4505016722E+04  6.4377269506E+00  5.8957296896E+00  2.9195101798E-01  2.6665381579E-01  6.4506413495E-01
  1.4602006689E+04  6.4953842526E+00  5.8890466062E+00  2.9780609000E-01  2.7161720195E-01  6.4770026982E-01
  1.4698996656E+04  6.5532476758E+00  5.8824463796E+00  3.0373837558E-01  2.7663279009E-01  6.5031729501E-01
  1.4795986622E+04  6.6114849209E+00  5.8759950461E+00  3.0974836816E-01  2.8170101925E-01  6.5291521659E-01
  1.4892976589E+04  6.6698541266E+00  5.8695928704E+00  3.1583656097E-01  2.8682121562E-01  6.5549404224E-01
  1.4989966555E+04  6.7285624305E+00  5.8633200232E+00  3.2200344707E-01  2.9199392289E-01  6.5805376346E-01
  1.5086956522E+04  6.7875257243E+00  5.8571412583E+00  3.2830541773E-01  2.9726471007E-01  6.6059437199E-01
  1.5183946488E+04  6.8466229085E+00  5.8510085367E+00  3.3469546618E-01  3.0259394320E-01  6.6311586602E-01
  1.5280936455E+04  6.9061807904E+00  5.8450449277E+00  3.4116777020E-01  3.0797733891E-01  6.6561824987E-01
  1.5377926421E+04  6.9658823694E+00  5.8391278244E+00  3.4772285205E-01  3.1341391115E-01  6.6810153380E-01
  1.5474916388E+04  7.0258136938E+00  5.8332888683E+00  3.5436123389E-01  3.1890386281E-01  6.7056573379E-01
  1.5571906355E+04  7.0861251921E+00  5.8275822568E+00  3.6108343783E-01  3.2444762145E-01  6.7301087135E-01
  1.5668896321E+04  7.1465751120E+00  5.8219166098E+00  3.6788998590E-01  3.3004435094E-01  6.7543697334E-01
  1.5765886288E+04  7.2073442249E+00  5.8163575115E+00  3.7478140006E-01  3.3569457170E-01  6.7784407178E-01
  1.5862876254E+04  7.2684120500E+00  5.8108953723E+00  3.8175820219E-01  3.4139815223E-01  6.8023220354E-01
  1.5959866221E+04  7.3296203228E+00  5.8054716111E+00  3.8882091412E-01  3.4715446379E-01  6.8260140144E-01
  1.6056856187E+04  7.3912227783E+00  5.8001764509E+00  3.9597005758E-01  3.5296430955E-01  6.8495168858E-01
  1.6153846154E+04  7.4530568945E+00  5.7949496339E+00  4.0320615425E-01  3.5882702945E-01  6.8728309244E-01
  1.6250836120E+04  7.5150335118E+00  5.7897587735E+00  4.1052972574E-01  3.6474218556E-01  6.8959564587E-01
  1.6347826087E+04  7.5774640560E+00  5.7847123358E+00  4.1794129358E-01  3.7071083999E-01  6.9188938692E-01
  1.6444816054E+04  7.6400744060E+00  5.7797122441E+00  4.2544137923E-01  3.7673185590E-01  6.9416435866E-01
  1.6541806020E+04  7.7028325968E+00  5.7747469640E+00  4.3303050408E-01  3.8280497204E-01  6.9642060895E-01
  1.6638795987E+04  7.7660818966E+00  5.7699335585E+00  4.4070918946E-01  3.8893143459E-01  6.9865819032E-01
  1.6735785953E+04  7.8294784001E+00  5.7651521070E+00  4.4847795661E-01  3.9510974489E-01  7.0087715969E-01
  1.6832775920E+04  7.8930460388E+00  5.7604104696E+00  4.5633732673E-01  4.0133984359E-01  7.0307757783E-01
  1.6929765886E+04  7.9570892597E+00  5.7558101233E+00  4.6428782093E-01  4.0762287941E-01  7.0525949696E-01
  1.7026755853E+04  8.0212818121E+00  5.7512396995E+00  4.7232996024E-01  4.1395732710E-01  7.0742296733E-01
  1.7123745819E+04  8.0856512258E+00  5.7467081088E+00  4.8046426565E-01  4.2034313114E-01  7.0956804520E-01
  1.7220735786E+04  8.1504982094E+00  5.7423135250E+00  4.8869125806E-01  4.2678148230E-01  7.1169479129E-01
  1.7317725753E+04  8.2154966804E+00  5.7379469553E+00  4.9701145831E-01  4.3327075821E-01  7.1380327060E-01
  1.7414715719E+04  8.2806593334E+00  5.7336123420E+00  5.0542538717E-01  4.3981082244E-01  7.1589355221E-01
  1.7511705686E+04  8.3463197881E+00  5.7294166295E+00  5.1394146549E-01  4.4640904110E-01  7.1796570909E-01
  1.7608695652E+04  8.4121339129E+00  5.7252471361E+00  5.2261090120E-01  4.5310164359E-01  7.2001981798E-01
  1.7705685619E+04  8.4781012180E+00  5.7211035549E+00  5.3137747997E-01  4.5984543503E-01  7.2205595916E-01
  1.7802675585E+04  8.5445628847E+00  5.7170934643E+00  5.4024174495E-01  4.6664192977E-01  7.2407487841E-01
  1.7899665552E+04  8.6112012625E+00  5.7131145414E+00  5.4920423926E-01  4.7348934690E-01  7.2607755262E-01
  1.7996655518E+04  8.6779950269E+00  5.7091598671E+00  5.5826550606E-01  4.8038734763E-01  7.2806402962E-01
  1.8093645485E+04  8.7452329328E+00  5.7053190196E+00  5.6742608848E-01  4.8733724475E-01  7.3003435496E-01
  1.8190635452E+04  8.8127034309E+00  5.7015244577E+00  5.7668652966E-01  4.9433771639E-01  7.3198857789E-01
  1.8287625418E+04  8.8803315313E+00  5.6977525778E+00  5.8604737275E-01  5.0138811706E-01  7.3392675117E-01
  1.8384615385E+04  8.9483332459E+00  5.6940693190E+00  5.9550916088E-01  5.0848941561E-01  7.3584893091E-01
  1.8481605351E+04  9.0166436134E+00  5.6904532443E+00  6.0507243719E-01  5.1564103670E-01  7.3775517651E-01
  1.8578595318E+04  9.0851138082E+00  5.6868583753E+00  6.1473774482E-01  5.2284188462E-01  7.3964555041E-01
  1.8675585284E+04  9.1538662350E+00  5.6833214658E+00  6.2450562691E-01  5.3009241857E-01  7.4152011808E-01
  1.8772575251E+04  9.2230241101E+00  5.6798783180E+00  6.3438436646E-01  5.3739869788E-01  7.4337894777E-01
  1.8869565217E+04  9.2923440470E+00  5.6764549836E+00  6.4437095932E-01  5.4475640758E-01  7.4522211049E-01
  1.8966555184E+04  9.3618334253E+00  5.6730535707E+00  6.5446206363E-01  5.5216250424E-01  7.4704967981E-01
  1.9063545151E+04  9.4318463345E+00  5.6697780819E+00  6.6465822598E-01  5.5961895723E-01  7.4886173176E-01
  1.9160535117E+04  9.5020235493E+00  5.6665210925E+00  6.7495999298E-01  5.6712324512E-01  7.5065834473E-01
  1.9257525084E+04  9.5723646206E+00  5.6632824051E+00  6.8536791124E-01  5.7467506138E-01  7.5243959932E-01
  1.9354515050E+04  9.6431108137E+00  5.6601318589E+00  6.9588252738E-01  5.8227571630E-01  7.5420557825E-01
  1.9451505017E+04  9.7141527294E+00  5.6570362925E+00  7.0650438801E-01  5.8992422346E-01  7.5595636563E-01
  1.9548494983E+04  9.7853607616E+00  5.6539578034E+00  7.1723403979E-01  5.9761940757E-01  7.5769203535E-01
  1.9645484950E+04  9.8568171881E+00  5.6509198309E+00  7.2807202933E-01  6.0536152487E-01  7.5941265314E-01
  1.9742474916E+04  9.9287311139E+00  5.6479810158E+00  7.3901890330E-01  6.1315176790E-01  7.6111828726E-01
  1.9839464883E+04  1.0000813425E+01  5.6450581203E+00  7.5007520832E-01  6.2098779626E-01  7.6280900870E-01
  1.9936454849E+04  1.0073063690E+01  5.6421509807E+00  7.6124149107E-01  6.2886926923E-01  7.6448489109E-01
  2.0033444816E+04  1.0145757416E+01  5.6393364451E+00  7.7254014162E-01  6.3681275235E-01  7.6614601052E-01
  2.0130434783E+04  1.0218721311E+01  5.6365647187E+00  7.8399244303E-01  6.4483050215E-01  7.6779244549E-01
  2.0227424749E+04  1.0291855447E+01  5.6338076671E+00  7.9555797851E-01  6.5289345752E-01  7.6942427670E-01
  2.0324414716E+04  1.0365229689E+01  5.6310843921E+00  8.0723731292E-01  6.6100180722E-01  7.7104158701E-01
  2.0421404682E+04  1.0439082933E+01  5.6284593571E+00  8.1903101116E-01  6.6915710996E-01  7.7264446127E-01
  2.0518394649E+04  1.0513108717E+01  5.6258479750E+00  8.3093963823E-01  6.7735662965E-01  7.7423298623E-01
  2.0615384615E+04  1.0587306626E+01  5.6232501108E+00  8.4296375915E-01  6.8559999116E-01  7.7580725043E-01
  2.0712374582E+04  1.0661896394E+01  5.6207242822E+00  8.5510393903E-01  6.9388864094E-01  7.7736734410E-01
  2.0809364548E+04  1.0736821710E+01  5.6182542719E+00  8.6736074303E-01  7.0222179907E-01  7.7891335902E-01
  2.0906354515E+04  1.0811921476E+01  5.6157968252E+00  8.7973473635E-01  7.1059776337E-01  7.8044538847E-01
  2.1003344482E+04  1.0887195286E+01  5.6133518204E+00  8.9222648429E-01  7.1901614217E-01  7.8196353134E-01
  2.1100334448E+04  1.0962991706E+01  5.6110096262E+00  9.0483655216E-01  7.2747959713E-01  7.8346790894E-01
  2.1197324415E+04  1.1039001138E+01  5.6086885548E+00  9.1756550537E-01  7.3598510380E-01  7.8495860918E-01
  2.1294314381E+04  1.1115186963E+01  5.6063790330E+00  9.3041390937E-01  7.4453194621E-01  7.8643571475E-01
  2.1391304348E+04  1.1191614984E+01  5.6040977885E+00  9.4338232966E-01  7.5312032134E-01  7.8789931018E-01
  2.1488294314E+04  1.1268541801E+01  5.6019092383E+00  9.5647133181E-01  7.6175221579E-01  7.8934948168E-01
  2.1585284281E+04  1.1345647373E+01  5.5997313931E+00  9.6968148143E-01  7.7042433815E-01  7.9078631711E-01
  2.1682274247E+04  1.1422931310E+01  5.5975641529E+00  9.8301334422E-01  7.7913627150E-01  7.9220990580E-01
  2.1779264214E+04  1.1500538646E+01  5.5954434449E+00  9.9646748589E-01  7.8788899197E-01  7.9362033852E-01
  2.1876254181E+04  1.1578571604E+01  5.5933936439E+00  1.0100444722E+00  7.9668312500E-01  7.9501770735E-01
  2.1973244147E+04  1.1656785313E+01  5.5913536568E+00  1.0237448691E+00  8.0551592510E-01  7.9640210555E-01
  2.2070234114E+04  1.1735179393E+01  5.5893233934E+00  1.0375692424E+00  8.1438696259E-01  7.9777362755E-01
  2.2167224080E+04  1.1813953724E+01  5.5873511112E+00  1.0515181581E+00  8.2329782658E-01  7.9913236879E-01
  2.2264214047E+04  1.1893104761E+01  5.5854349496E+00  1.0655921821E+00  8.3224812108E-01  8.0047842568E-01
  2.2361204013E+04  1.1972438578E+01  5.5835277702E+00  1.0797924264E+00  8.4123580834E-01  8.0181189547E-01
  2.2458193980E+04  1.2051954800E+01  5.5816294921E+00  1.0942245875E+00  8.5032393057E-01  8.0313287568E-01
  2.2555183946E+04  1.2131882592E+01  5.5797940581E+00  1.1087859255E+00  8.5945143811E-01  8.0444145725E-01
  2.2652173913E+04  1.2212163617E+01  5.5780067248E+00  1.1234770303E+00  8.6861733993E-01  8.0573772728E-01
  2.2749163880E+04  1.2292629479E+01  5.5762275969E+00  1.1382984916E+00  8.7781941915E-01  8.0702177406E-01
  2.2846153846E+04  1.2373279813E+01  5.5744566020E+00  1.1532508995E+00  8.8705721652E-01  8.0829368708E-01
  2.2943143813E+04  1.2454346304E+01  5.5727469335E+00  1.1683348441E+00  8.9633284982E-01  8.0955355687E-01
  2.3040133779E+04  1.2535769189E+01  5.5710838940E+00  1.1835509157E+00  9.0564527419E-01  8.1080147495E-01
  2.3137123746E+04  1.2617378999E+01  5.5694283337E+00  1.1988997046E+00  9.1499216499E-01  8.1203753377E-01
  2.3234113712E+04  1.2699175377E+01  5.5677801879E+00  1.2143818012E+00  9.2437305386E-01  8.1326182659E-01
  2.3331103679E+04  1.2781364566E+01  5.5661856625E+00  1.2299977961E+00  9.3378987486E-01  8.1447444739E-01
  2.3428093645E+04  1.2863941144E+01  5.5646426385E+00  1.2457482800E+00  9.4324217426E-01  8.1567549085E-01
  2.3525083612E+04  1.2946706765E+01  5.5631064145E+00  1.2616338436E+00  9.5272719868E-01  8.1686505224E-01
  2.3622073579E+04  1.3029661079E+01  5.5615769325E+00  1.2776550780E+00  9.6224447206E-01  8.1804322733E-01
  2.3719063545E+04  1.3112955711E+01  5.5600873561E+00  1.2938125741E+00  9.7179536567E-01  8.1921011238E-01
  2.3816053512E+04  1.3196697773E+01  5.5586603073E+00  1.3101069229E+00  9.8138077981E-01  8.2036580364E-01
  2.3913043478E+04  1.3280631024E+01  5.5572394223E+00  1.3265387159E+00  9.9099715270E-01  8.2151039207E-01
  2.4010033445E+04  1.3364755123E+01  5.5558246497E+00  1.3431085442E+00  1.0006440020E+00  8.2264396504E-01
  2.4107023411E+04  1.3449136673E+01  5.5544302273E+00  1.3598169993E+00  1.0103216943E+00  8.2376661061E-01
  2.4204013378E+04  1.3534055962E+01  5.5531153342E+00  1.3766646728E+00  1.0200333717E+00  8.2487841756E-01
  2.4301003344E+04  1.3619168616E+01  5.5518060090E+00  1.3936521564E+00  1.0297742224E+00  8.2597947528E-01
  2.4397993311E+04  1.3704474300E+01  5.5505022061E+00  1.4107800418E+00  1.0395437591E+00  8.2706987374E-01
  2.4494983278E+04  1.3789972684E+01  5.5492038803E+00  1.4280489208E+00  1.0493414934E+00  8.2814970338E-01
  2.4591973244E+04  1.3876031174E+01  5.5479871635E+00  1.4454593855E+00  1.0591718543E+00  8.2921905509E-01
  2.4688963211E+04  1.3962334951E+01  5.5467858214E+00  1.4630120280E+00  1.0690302477E+00  8.3027802010E-01
  2.4785953177E+04  1.4048833970E+01  5.5455894481E+00  1.4807074404E+00  1.0789155243E+00  8.3132668995E-01
  2.4882943144E+04  1.4135527906E+01  5.5443980038E+00  1.4985462150E+00  1.0888271925E+00  8.3236515645E-01
  2.4979933110E+04  1.4222636211E+01  5.5432561576E+00  1.5165289442E+00  1.0987678281E+00  8.3339351156E-01
  2.5076923077E+04  1.4310140470E+01  5.5421593673E+00  1.5347396632E+00  1.1087803226E+00  8.3441184842E-01
  2.5173913043E+04  1.4397842189E+01  5.5410670265E+00  1.5531191998E+00  1.1188296790E+00  8.3542027776E-01
  2.5270903010E+04  1.4485741053E+01  5.5399791003E+00  1.5716466173E+00  1.1289040842E+00  8.3641889290E-01
  2.5367892977E+04  1.4573874786E+01  5.5389034185E+00  1.5903225280E+00  1.1390036015E+00  8.3740777872E-01
  2.5464882943E+04  1.4662573293E+01  5.5379076430E+00  1.6091475443E+00  1.1491326936E+00  8.3838702042E-01
  2.5561872910E+04  1.4751471362E+01  5.5369158309E+00  1.6281222788E+00  1.1592854908E+00  8.3935670351E-01
  2.5658862876E+04  1.4840568681E+01  5.5359279516E+00  1.6472473442E+00  1.1694614912E+00  8.4031691371E-01
  2.5755852843E+04  1.4929864941E+01  5.5349439746E+00  1.6665233533E+00  1.1796601927E+00  8.4126773691E-01
  2.5852842809E+04  1.5019585862E+01  5.5340118831E+00  1.6859509191E+00  1.1898847311E+00  8.4220925914E-01
  2.5949832776E+04  1.5109666689E+01  5.5331171597E+00  1.7055306548E+00  1.2001336552E+00  8.4314156651E-01
  2.6046822742E+04  1.5199948698E+01  5.5322259181E+00  1.7252631736E+00  1.2104039367E+00  8.4406474514E-01
  2.6143812709E+04  1.5290431589E+01  5.5313381318E+00  1.7451490891E+00  1.2206950743E+00  8.4497888117E-01
  2.6240802676E+04  1.5381115828E+01  5.5304539442E+00  1.7651890147E+00  1.2310065801E+00  8.4588406064E-01
  2.6337792642E+04  1.5472364674E+01  5.5296530402E+00  1.7853835642E+00  1.2413443108E+00  8.4678036766E-01
  2.6434782609E+04  1.5563816460E+01  5.5288551956E+00  1.8057333516E+00  1.2517015577E+00  8.4766787937E-01
  2.6531772575E+04  1.5655470891E+01  5.5280603873E+00  1.8262389908E+00  1.2620778216E+00  8.4854667609E-01
  2.6628762542E+04  1.5747327672E+01  5.5272685930E+00  1.8469010960E+00  1.2724726038E+00  8.4941683861E-01
  2.6725752508E+04  1.5839502564E+01  5.5265063459E+00  1.8677202815E+00  1.2828875982E+00  8.5027844782E-01
  2.6822742475E+04  1.5932108103E+01  5.5257988150E+00  1.8886971617E+00  1.2933245122E+00  8.5113158456E-01
  2.6919732441E+04  1.6024917873E+01  5.5250939281E+00  1.9098323513E+00  1.3037786146E+00  8.5197632941E-01
  2.7016722408E+04  1.6117931587E+01  5.5243916657E+00  1.9311264650E+00  1.3142494104E+00  8.5281276102E-01
  2.7113712375E+04  1.6211148958E+01  5.5236920087E+00  1.9525801176E+00  1.3247364051E+00  8.5364095785E-01
  2.7210702341E+04  1.6304760946E+01  5.5230405928E+00  1.9741939243E+00  1.3352430560E+00  8.5446097160E-01
  2.7307692308E+04  1.6398708768E+01  5.5224227161E+00  1.9959685001E+00  1.3457677494E+00  8.5527321859E-01
  2.7404682274E+04  1.6492861948E+01  5.5218070988E+00  2.0179046277E+00  1.3563074027E+00  8.5607881173E-01
  2.7501672241E+04  1.6587220207E+01  5.5211937247E+00  2.0400034711E+00  1.3668617715E+00  8.5687870336E-01
  2.7598662207E+04  1.6681783266E+01  5.5205825777E+00  2.0622649460E+00  1.3774300491E+00  8.5767289933E-01
  2.7695652174E+04  1.6776781404E+01  5.5200314415E+00  2.0846896683E+00  1.3880169810E+00  8.5846140973E-01
  2.7792642140E+04  1.6872055521E+01  5.5194997174E+00  2.1072782540E+00  1.3986185729E+00  8.5924428343E-01
  2.7889632107E+04  1.6967535959E+01  5.5189698967E+00  2.1300313192E+00  1.4092327790E+00  8.6002156880E-01
  2.7986622074E+04  1.7063222445E+01  5.5184419658E+00  2.1529494802E+00  1.4198591173E+00  8.6079331377E-01
  2.8083612040E+04  1.7159114707E+01  5.5179159116E+00  2.1760333534E+00  1.4304971071E+00  8.6155956585E-01
  2.8180602007E+04  1.7255451098E+01  5.5174550239E+00  2.1992835552E+00  1.4411522525E+00  8.6232037205E-01
  2.8277591973E+04  1.7352033970E+01  5.5170061519E+00  2.2227007023E+00  1.4518192272E+00  8.6307577899E-01
  2.8374581940E+04  1.7448823958E+01  5.5165588532E+00  2.2462854116E+00  1.4624965833E+00  8.6382583281E-01
  2.8471571906E+04  1.7545820795E+01  5.5161131169E+00  2.2700383000E+00  1.4731838477E+00  8.6457057925E-01
  2.8568561873E+04  1.7643024216E+01  5.5156689323E+00  2.2939599845E+00  1.4838805489E+00  8.6531006360E-01
  2.8665551839E+04  1.7740654456E+01  5.5152887476E+00  2.3180510824E+00  1.4945923690E+00  8.6604433073E-01
  2.8762541806E+04  1.7838527011E+01  5.5149196131E+00  2.3423122109E+00  1.5053137995E+00  8.6677342509E-01
  2.8859531773E+04  1.7936607308E+01  5.5145517459E+00  2.3667439875E+00  1.5160434255E+00  8.6749739070E-01
  2.8956521739E+04  1.8034895087E+01  5.5141851373E+00  2.3913470299E+00  1.5267807840E+00  8.6821627120E-01
  2.9053511706E+04  1.8133390088E+01  5.5138197789E+00  2.4161219557E+00  1.5375254141E+00  8.6893010977E-01
  2.9150501672E+04  1.8232273719E+01  5.5135112063E+00  2.4410693828E+00  1.5482825471E+00  8.6963894923E-01
  2.9247491639E+04  1.8331415383E+01  5.5132188671E+00  2.4661899293E+00  1.5590477380E+00  8.7034283196E-01
  2.9344481605E+04  1.8430765245E+01  5.5129275112E+00  2.4914842131E+00  1.5698189915E+00  8.7104179998E-01
  2.9441471572E+04  1.8530323050E+01  5.5126371320E+00  2.5169528526E+00  1.5805958562E+00  8.7173589488E-01
  2.9538461538E+04  1.8630088548E+01  5.5123477230E+00  2.5425964661E+00  1.5913778829E+00  8.7242515787E-01
  2.9635451505E+04  1.8730189530E+01  5.5121020970E+00  2.5684156721E+00  1.6021691794E+00  8.7310962978E-01
  2.9732441472E+04  1.8830578283E+01  5.5118837705E+00  2.5944110893E+00  1.6129676973E+00  8.7378935160E-01
  2.9829431438E+04  1.8931175519E+01  5.5116661637E+00  2.6205833364E+00  1.6237702040E+00  8.7446436532E-01
  2.9926421405E+04  1.9031980991E+01  5.5114492718E+00  2.6469330323E+00  1.6345762606E+00  8.7513471252E-01
  3.0023411371E+04  1.9132994454E+01  5.5112330902E+00  2.6735098681E+00  1.6454040184E+00  8.7580043433E-01
  3.0120401338E+04  1.9234285147E+01  5.5110421288E+00  2.7004217480E+00  1.6562957561E+00  8.7646157145E-01
  3.0217391304E+04  1.9335907379E+01  5.5108951383E+00  2.7275163867E+00  1.6671949251E+00  8.7711816412E-01
  3.0314381271E+04  1.9437738281E+01  5.5107486228E+00  2.7547944298E+00  1.6780963037E+00  8.7777025214E-01
  3.0411371237E+04  1.9539777611E+01  5.5106025792E+00  2.7822565230E+00  1.6889994568E+00  8.7841787492E-01
  3.0508361204E+04  1.9642025130E+01  5.5104570045E+00  2.8099033122E+00  1.6999039519E+00  8.7906107140E-01
  3.0605351171E+04  1.9744483349E+01  5.5103128021E+00  2.8377354434E+00  1.7108094672E+00  8.7969988012E-01
  3.0702341137E+04  1.9847348942E+01  5.5102345081E+00  2.8657535628E+00  1.7217233620E+00  8.8033433923E-01
  3.0799331104E+04  1.9950423468E+01  5.5101564621E+00  2.8939583170E+00  1.7326374800E+00  8.8096448643E-01
  3.0896321070E+04  2.0053706691E+01  5.5100786627E+00  2.9223503525E+00  1.7435514007E+00  8.8159035906E-01
  3.0993311037E+04  2.0157198377E+01  5.5100011081E+00  2.9509303161E+00  1.7544647064E+00  8.8221199403E-01
  3.1090301003E+04  2.0260898292E+01  5.5099237970E+00  2.9796988548E+00  1.7653769824E+00  8.8282942789E-01
  3.1187290970E+04  2.0364929870E+01  5.5098840019E+00  3.0086566157E+00  1.7762926315E+00  8.8344269679E-01
