#[MATERIAL DEFINITION FOR MC-GPU: interaction mean free path and sampling data from PENELOPE 2006]
#[MATERIAL NAME]
# MATERIAL17                                                    
#[NOMINAL DENSITY (g/cm^3)]
#   1.00000000
#[NUMBER OF DATA VALUES]
#   1495
#[MEAN FREE PATHS (cm) (ie, average distance between interactions)]
#[Energy (eV)     | Rayleigh        | Compton         | Photoelectric   | TOTAL (+pair prod) (cm) | Rayleigh: max cumul prob F^2]
  5.0000000000E+03  1.3574205408E+00  9.0112570652E+00  7.0132514511E-03  6.9718049177E-03  2.6515563968E-01
  5.0969899666E+03  1.3829421172E+00  8.9290847084E+00  7.3892303751E-03  7.3439135111E-03  2.7004888541E-01
  5.1939799331E+03  1.4086368966E+00  8.8502732856E+00  7.7776302550E-03  7.7281685181E-03  2.7489532681E-01
  5.2909698997E+03  1.4345019439E+00  8.7746285114E+00  8.1786145123E-03  8.1247196957E-03  2.7969650070E-01
  5.3879598662E+03  1.4605342471E+00  8.7019699355E+00  8.5923455428E-03  8.5337153530E-03  2.8445385896E-01
  5.4849498328E+03  1.4867307289E+00  8.6321297399E+00  9.0190865406E-03  8.9554027353E-03  2.8916876678E-01
  5.5819397993E+03  1.5130882574E+00  8.5649516604E+00  9.4601237345E-03  9.3910365894E-03  2.9384257698E-01
  5.6789297659E+03  1.5396036570E+00  8.5002900166E+00  9.9144840565E-03  9.8396436863E-03  2.9847661740E-01
  5.7759197324E+03  1.5662737192E+00  8.4380088395E+00  1.0382328446E-02  1.0301368909E-02  3.0307209381E-01
  5.8729096990E+03  1.5930952126E+00  8.3779810833E+00  1.0863816921E-02  1.0776355750E-02  3.0763015582E-01
  5.9698996656E+03  1.6200648973E+00  8.3200879086E+00  1.1359108599E-02  1.1264746324E-02  3.1215194584E-01
  6.0668896321E+03  1.6471797642E+00  8.2642177195E+00  1.1869468006E-02  1.1767768808E-02  3.1663853666E-01
  6.1638795987E+03  1.6744374468E+00  8.2102650714E+00  1.2394534929E-02  1.2285052419E-02  3.2109089510E-01
  6.2608695652E+03  1.7018361750E+00  8.1581303071E+00  1.2935952412E-02  1.2818193903E-02  3.2550997639E-01
  6.3578595318E+03  1.7293741877E+00  8.1077199253E+00  1.3497884059E-02  1.3371259737E-02  3.2989674833E-01
  6.4548494983E+03  1.7570583109E+00  8.0589874768E+00  1.4075086129E-02  1.3939081051E-02  3.3425202355E-01
  6.5518394649E+03  1.7848889656E+00  8.0118584642E+00  1.4670369929E-02  1.4524395571E-02  3.3857651850E-01
  6.6488294314E+03  1.8128555242E+00  7.9662122729E+00  1.5282450330E-02  1.5125920471E-02  3.4287095272E-01
  6.7458193980E+03  1.8409560262E+00  7.9219755072E+00  1.5910579040E-02  1.5742901805E-02  3.4713604810E-01
  6.8428093645E+03  1.8691884834E+00  7.8790791159E+00  1.6554934524E-02  1.6375493905E-02  3.5137252821E-01
  6.9397993311E+03  1.8975508848E+00  7.8374580934E+00  1.7215694585E-02  1.7023849790E-02  3.5558108232E-01
  7.0367892977E+03  1.9260421902E+00  7.7970553567E+00  1.7894273918E-02  1.7689330625E-02  3.5976222764E-01
  7.1337792642E+03  1.9546903980E+00  7.7579342703E+00  1.8591773196E-02  1.8372990389E-02  3.6391644098E-01
  7.2307692308E+03  1.9834655430E+00  7.7199163919E+00  1.9306408406E-02  1.9073058464E-02  3.6804420565E-01
  7.3277591973E+03  2.0123660738E+00  7.6829494020E+00  2.0038359456E-02  1.9789686780E-02  3.7214601019E-01
  7.4247491639E+03  2.0413903684E+00  7.6469840061E+00  2.0787805652E-02  2.0523025937E-02  3.7622234735E-01
  7.5217391304E+03  2.0705548401E+00  7.6120389349E+00  2.1554925707E-02  2.1273227625E-02  3.8027365024E-01
  7.6187290970E+03  2.0998646678E+00  7.5780882896E+00  2.2339897750E-02  2.2040441072E-02  3.8430024042E-01
  7.7157190635E+03  2.1292956856E+00  7.5450072093E+00  2.3142899335E-02  2.2824810089E-02  3.8830243657E-01
  7.8127090301E+03  2.1588460205E+00  7.5127563755E+00  2.3964107449E-02  2.3626480004E-02  3.9228056440E-01
  7.9096989967E+03  2.1885430147E+00  7.4813925846E+00  2.4803698524E-02  2.4445599460E-02  3.9623495597E-01
  8.0066889632E+03  2.2183781948E+00  7.4508516703E+00  2.5662872668E-02  2.5283304759E-02  4.0016592659E-01
  8.1036789298E+03  2.2483297734E+00  7.4210341315E+00  2.6555065916E-02  2.6152593964E-02  4.0407370026E-01
  8.2006688963E+03  2.2784052406E+00  7.3919362878E+00  2.7467038766E-02  2.7040576691E-02  4.0795848501E-01
  8.2976588629E+03  2.3086437573E+00  7.3636399830E+00  2.8398985901E-02  2.7947416959E-02  4.1182049663E-01
  8.3946488294E+03  2.3389967323E+00  7.3359757775E+00  2.9351101555E-02  2.8873261572E-02  4.1565995792E-01
  8.4916387960E+03  2.3694640795E+00  7.3089226056E+00  3.0323579521E-02  2.9818264389E-02  4.1947707930E-01
  8.5886287625E+03  2.4001076493E+00  7.2826164738E+00  3.1316613160E-02  3.0782590905E-02  4.2327200433E-01
  8.6856187291E+03  2.4308631593E+00  7.2568637148E+00  3.2330395403E-02  3.1766379763E-02  4.2704486811E-01
  8.7826086957E+03  2.4617363715E+00  7.2316614547E+00  3.3365118756E-02  3.2769782082E-02  4.3079581344E-01
  8.8795986622E+03  2.4927852579E+00  7.2071242876E+00  3.4420975308E-02  3.3792960027E-02  4.3452499180E-01
  8.9765886288E+03  2.5239427861E+00  7.1830724077E+00  3.5498156737E-02  3.4836046020E-02  4.3823256887E-01
  9.0735785953E+03  2.5552356449E+00  7.1595503224E+00  3.6602531279E-02  3.5904655038E-02  4.4191861824E-01
  9.1705685619E+03  2.5866886822E+00  7.1365896476E+00  3.7730751708E-02  3.6995522997E-02  4.4558319362E-01
  9.2675585284E+03  2.6182464554E+00  7.1140556129E+00  3.8881255071E-02  3.8107089497E-02  4.4922635732E-01
  9.3645484950E+03  2.6499736545E+00  7.0920643904E+00  4.0054239339E-02  3.9239520469E-02  4.5284817965E-01
  9.4615384615E+03  2.6818290363E+00  7.0705136854E+00  4.1249902118E-02  4.0392952247E-02  4.5644873839E-01
  9.5585284281E+03  2.7138057220E+00  7.0493779703E+00  4.2468440657E-02  4.1567528540E-02  4.6002811828E-01
  9.6555183946E+03  2.7459614152E+00  7.0287470591E+00  4.3710051848E-02  4.2763411237E-02  4.6358641056E-01
  9.7525083612E+03  2.7782155414E+00  7.0084603491E+00  4.4974932230E-02  4.3980719104E-02  4.6712370609E-01
  9.8494983278E+03  2.8106510469E+00  6.9886505036E+00  4.6263277996E-02  4.5219620058E-02  4.7064003137E-01
  9.9464882943E+03  2.8432060742E+00  6.9691956928E+00  4.7575284998E-02  4.6480234780E-02  4.7413538947E-01
  1.0043478261E+04  2.8759051113E+00  6.9501263969E+00  4.8917110124E-02  4.7768395001E-02  4.7760979309E-01
  1.0140468227E+04  2.9087631304E+00  6.9314519864E+00  5.0290771176E-02  4.9085963754E-02  4.8106326263E-01
  1.0237458194E+04  2.9417311226E+00  6.9130859511E+00  5.1689305935E-02  5.0426226097E-02  4.8449582578E-01
  1.0334448161E+04  2.9748945815E+00  6.8951460877E+00  5.3112920912E-02  5.1789357960E-02  4.8790751712E-01
  1.0431438127E+04  3.0081453529E+00  6.8774612068E+00  5.4561822334E-02  5.3175460849E-02  4.9129837769E-01
  1.0528428094E+04  3.0416086660E+00  6.8602024346E+00  5.6036216145E-02  5.4584725304E-02  4.9466845127E-01
  1.0625418060E+04  3.0751644765E+00  6.8431887146E+00  5.7536308008E-02  5.6017242780E-02  4.9801774413E-01
  1.0722408027E+04  3.1089133188E+00  6.8265504303E+00  5.9062303311E-02  5.7473193405E-02  5.0134624539E-01
  1.0819397993E+04  3.1427757870E+00  6.8101699127E+00  6.0614407166E-02  5.8952680061E-02  5.0465395205E-01
  1.0916387960E+04  3.1768161273E+00  6.7941239506E+00  6.2192824412E-02  6.0455866512E-02  5.0794086832E-01
  1.1013377926E+04  3.2109864820E+00  6.7783410395E+00  6.3797759622E-02  6.1982864917E-02  5.1120700521E-01
  1.1110367893E+04  3.2453243182E+00  6.7628609891E+00  6.5429417100E-02  6.3533825267E-02  5.1445238021E-01
  1.1207357860E+04  3.2798033862E+00  6.7476422691E+00  6.7092082651E-02  6.5112710283E-02  5.1767701696E-01
  1.1304347826E+04  3.3144447439E+00  6.7327033367E+00  6.8792822487E-02  6.6726103476E-02  5.2088093107E-01
  1.1401337793E+04  3.3492329383E+00  6.7180174075E+00  7.0521521541E-02  6.8364392996E-02  5.2406411174E-01
  1.1498327759E+04  3.3841838698E+00  6.7035962911E+00  7.2278394135E-02  7.0027721669E-02  5.2722655167E-01
  1.1595317726E+04  3.4192811773E+00  6.6894136172E+00  7.4063654376E-02  7.1716213267E-02  5.3036825039E-01
  1.1692307692E+04  3.4545477594E+00  6.6754883929E+00  7.5877516154E-02  7.3430011911E-02  5.3348921398E-01
  1.1789297659E+04  3.4899537285E+00  6.6617811669E+00  7.7720193151E-02  7.5169229862E-02  5.3658945476E-01
  1.1886287625E+04  3.5255420612E+00  6.6483311857E+00  7.9591898834E-02  7.6934020652E-02  5.3966899103E-01
  1.1983277592E+04  3.5612557889E+00  6.6350732040E+00  8.1492846463E-02  7.8724475925E-02  5.4272783656E-01
  1.2080267559E+04  3.5971719939E+00  6.6220789976E+00  8.3423249092E-02  8.0540768611E-02  5.4576598720E-01
  1.2177257525E+04  3.6331921133E+00  6.6092455468E+00  8.5383319569E-02  8.2382958650E-02  5.4878344285E-01
  1.2274247492E+04  3.6694423318E+00  6.5966887418E+00  8.7373270537E-02  8.4251250450E-02  5.5178020978E-01
  1.2371237458E+04  3.7057669993E+00  6.5842564950E+00  8.9393314439E-02  8.6145658948E-02  5.5475630041E-01
  1.2468227425E+04  3.7423574019E+00  6.5721197544E+00  9.1443663518E-02  8.8066434445E-02  5.5771173297E-01
  1.2565217391E+04  3.7790213613E+00  6.5600991726E+00  9.3539203149E-02  9.0027150507E-02  5.6064653442E-01
  1.2662207358E+04  3.8159214442E+00  6.5483342601E+00  9.5673313001E-02  9.2021666241E-02  5.6356074979E-01
  1.2759197324E+04  3.8529337376E+00  6.5367122488E+00  9.7839203800E-02  9.4043506543E-02  5.6645438711E-01
  1.2856187291E+04  3.8901389225E+00  6.5252976822E+00  1.0003710046E-01  9.6092852405E-02  5.6932745214E-01
  1.2953177258E+04  3.9275069012E+00  6.5140608319E+00  1.0226722777E-01  9.8169799757E-02  5.7217995678E-01
  1.3050167224E+04  3.9650143447E+00  6.5029781141E+00  1.0452981033E-01  1.0027444571E-01  5.7501191881E-01
  1.3147157191E+04  4.0027454455E+00  6.4921137805E+00  1.0682507263E-01  1.0240697550E-01  5.7782336170E-01
  1.3244147157E+04  4.0405543068E+00  6.4813472532E+00  1.0915323900E-01  1.0456737846E-01  5.8061431435E-01
  1.3341137124E+04  4.0786533652E+00  6.4708413754E+00  1.1151453364E-01  1.0675595038E-01  5.8338481089E-01
  1.3438127090E+04  4.1168344553E+00  6.4604304846E+00  1.1390918060E-01  1.0897261816E-01  5.8613489046E-01
  1.3535117057E+04  4.1552340257E+00  6.4502152145E+00  1.1633740378E-01  1.1121761188E-01  5.8886459701E-01
  1.3632107023E+04  4.1937949013E+00  6.4401488200E+00  1.1879942694E-01  1.1349098610E-01  5.9157397908E-01
  1.3729096990E+04  4.2324901395E+00  6.4302081292E+00  1.2129621793E-01  1.1579349608E-01  5.9426308968E-01
  1.3826086957E+04  4.2714383899E+00  6.4204756398E+00  1.2382855968E-01  1.1812586736E-01  5.9693198389E-01
  1.3923076923E+04  4.3104690240E+00  6.4108257622E+00  1.2639543475E-01  1.2048689793E-01  5.9958068920E-01
  1.4020066890E+04  4.3497669871E+00  6.4013854456E+00  1.2899706711E-01  1.2287687516E-01  6.0220922727E-01
  1.4117056856E+04  4.3891943843E+00  6.3920553157E+00  1.3163368058E-01  1.2529575484E-01  6.0481762547E-01
  1.4214046823E+04  4.4287820556E+00  6.3828537914E+00  1.3430549887E-01  1.2774366299E-01  6.0740591661E-01
  1.4311036789E+04  4.4686139063E+00  6.3738340201E+00  1.3701274553E-01  1.3022078668E-01  6.0997413879E-01
  1.4408026756E+04  4.5085313285E+00  6.3648877897E+00  1.3975564401E-01  1.3272704040E-01  6.1252233513E-01
  1.4505016722E+04  4.5487282482E+00  6.3561388588E+00  1.4253441760E-01  1.3526273492E-01  6.1505055362E-01
  1.4602006689E+04  4.5890597017E+00  6.3474904245E+00  1.4534928947E-01  1.3782779227E-01  6.1755884691E-01
  1.4698996656E+04  4.6295373128E+00  6.3389477170E+00  1.4820048266E-01  1.4042230932E-01  6.2004727210E-01
  1.4795986622E+04  4.6702905760E+00  6.3305887218E+00  1.5108822009E-01  1.4304653005E-01  6.2251589058E-01
  1.4892976589E+04  4.7111327971E+00  6.3222952576E+00  1.5401272454E-01  1.4570030577E-01  6.2496476441E-01
  1.4989966555E+04  4.7522228483E+00  6.3141617955E+00  1.5697421866E-01  1.4838391694E-01  6.2739393957E-01
  1.5086956522E+04  4.7934962493E+00  6.3061465785E+00  1.6000406943E-01  1.5112514596E-01  6.2980346058E-01
  1.5183946488E+04  4.8348601807E+00  6.2981928014E+00  1.6307600398E-01  1.5390020951E-01  6.3219337703E-01
  1.5280936455E+04  4.8765630039E+00  6.2904450880E+00  1.6618672349E-01  1.5670636875E-01  6.3456374326E-01
  1.5377926421E+04  4.9183638501E+00  6.2827590721E+00  1.6933646556E-01  1.5954337503E-01  6.3691461825E-01
  1.5474916388E+04  4.9603274039E+00  6.2751717310E+00  1.7252546776E-01  1.6241139393E-01  6.3924606534E-01
  1.5571906355E+04  5.0025667983E+00  6.2677464610E+00  1.7575396756E-01  1.6531066904E-01  6.4155815210E-01
  1.5668896321E+04  5.0449002567E+00  6.2603760007E+00  1.7902220235E-01  1.6824100662E-01  6.4385095012E-01
  1.5765886288E+04  5.0874623270E+00  6.2531368893E+00  1.8233040948E-01  1.7120268079E-01  6.4612453486E-01
  1.5862876254E+04  5.1302377714E+00  6.2460177745E+00  1.8567882619E-01  1.7419574206E-01  6.4837898536E-01
  1.5959866221E+04  5.1731088390E+00  6.2389500866E+00  1.8906768966E-01  1.7722007011E-01  6.5061437581E-01
  1.6056856187E+04  5.2162623875E+00  6.2320388263E+00  1.9249723701E-01  1.8027603386E-01  6.5283076981E-01
  1.6153846154E+04  5.2595787419E+00  6.2252136567E+00  1.9596770526E-01  1.8336350390E-01  6.5502823400E-01
  1.6250836120E+04  5.3029922697E+00  6.2184367517E+00  1.9947933139E-01  1.8648242628E-01  6.5720683925E-01
  1.6347826087E+04  5.3467298885E+00  6.2118339714E+00  2.0303235229E-01  1.8963325505E-01  6.5936666044E-01
  1.6444816054E+04  5.3905918686E+00  6.2052912865E+00  2.0662700477E-01  1.9281570087E-01  6.6150777629E-01
  1.6541806020E+04  5.4345549125E+00  6.1987952085E+00  2.1026352560E-01  1.9602977009E-01  6.6363026919E-01
  1.6638795987E+04  5.4788664879E+00  6.1924811653E+00  2.1394215145E-01  1.9927597533E-01  6.6573422500E-01
  1.6735785953E+04  5.5232786664E+00  6.1862101964E+00  2.1766311894E-01  2.0255390799E-01  6.6781973292E-01
  1.6832775920E+04  5.5678085269E+00  6.1799912906E+00  2.2142666460E-01  2.0586364185E-01  6.6988688463E-01
  1.6929765886E+04  5.6126732138E+00  6.1739414760E+00  2.2523302491E-01  2.0920565330E-01  6.7193575970E-01
  1.7026755853E+04  5.6576400220E+00  6.1679320934E+00  2.2908243628E-01  2.1257952759E-01  6.7396643823E-01
  1.7123745819E+04  5.7027283829E+00  6.1619733178E+00  2.3297513503E-01  2.1598533890E-01  6.7597900667E-01
  1.7220735786E+04  5.7481504811E+00  6.1561780305E+00  2.3691135745E-01  2.1942357391E-01  6.7797355478E-01
  1.7317725753E+04  5.7936762102E+00  6.1504206963E+00  2.4089133971E-01  2.2289378812E-01  6.7995017552E-01
  1.7414715719E+04  5.8393144353E+00  6.1447057638E+00  2.4491531797E-01  2.2639602806E-01  6.8190896485E-01
  1.7511705686E+04  5.8852980837E+00  6.1391558589E+00  2.4898732006E-01  2.2993408095E-01  6.8385002158E-01
  1.7608695652E+04  5.9313868641E+00  6.1336415790E+00  2.5313190257E-01  2.3352812440E-01  6.8577344725E-01
  1.7705685619E+04  5.9775804357E+00  6.1281625012E+00  2.5732206472E-01  2.3715489872E-01  6.8767934590E-01
  1.7802675585E+04  6.0241149777E+00  6.1228417119E+00  2.6155805283E-01  2.4081499315E-01  6.8956889443E-01
  1.7899665552E+04  6.0707705707E+00  6.1175619592E+00  2.6584011316E-01  2.4450791845E-01  6.9144364862E-01
  1.7996655518E+04  6.1175324503E+00  6.1123152538E+00  2.7016849198E-01  2.4823365634E-01  6.9330366414E-01
  1.8093645485E+04  6.1645990287E+00  6.1072038921E+00  2.7454343546E-01  2.5199272705E-01  6.9514898976E-01
  1.8190635452E+04  6.2118249128E+00  6.1021505903E+00  2.7896518979E-01  2.5578479166E-01  6.9697967700E-01
  1.8287625418E+04  6.2591585667E+00  6.0971283084E+00  2.8343400110E-01  2.5960973075E-01  6.9879578001E-01
  1.8384615385E+04  6.3067473109E+00  6.0922121985E+00  2.8795011547E-01  2.6346794951E-01  7.0059735547E-01
  1.8481605351E+04  6.3545468117E+00  6.0873777139E+00  2.9251377898E-01  2.6735935151E-01  7.0238446248E-01
  1.8578595318E+04  6.4024555533E+00  6.0825723403E+00  2.9712523764E-01  2.7128366998E-01  7.0415716246E-01
  1.8675585284E+04  6.4505563818E+00  6.0778378683E+00  3.0178473744E-01  2.7524114207E-01  7.0591552125E-01
  1.8772575251E+04  6.4989326752E+00  6.0732149795E+00  3.0649692057E-01  2.7923566907E-01  7.0765961286E-01
  1.8869565217E+04  6.5474196680E+00  6.0686194030E+00  3.1126001364E-01  2.8326508736E-01  7.0938951371E-01
  1.8966555184E+04  6.5960223061E+00  6.0640534786E+00  3.1607205478E-01  2.8732756771E-01  7.1110530173E-01
  1.9063545151E+04  6.6449784192E+00  6.0596353485E+00  3.2093329167E-01  2.9142383330E-01  7.1280705625E-01
  1.9160535117E+04  6.6940466780E+00  6.0552428342E+00  3.2584397193E-01  2.9555315583E-01  7.1449485790E-01
  1.9257525084E+04  6.7432267698E+00  6.0508756586E+00  3.3080434316E-01  2.9971552114E-01  7.1616878860E-01
  1.9354515050E+04  6.7926794880E+00  6.0466130053E+00  3.3581465293E-01  3.0391143575E-01  7.1782893139E-01
  1.9451505017E+04  6.8423318802E+00  6.0424171700E+00  3.4087514877E-01  3.0814066617E-01  7.1947536783E-01
  1.9548494983E+04  6.8920975441E+00  6.0382450940E+00  3.4598607819E-01  3.1240291623E-01  7.2110815684E-01
  1.9645484950E+04  6.9420308748E+00  6.0341232760E+00  3.5114768867E-01  3.1669834982E-01  7.2272735775E-01
  1.9742474916E+04  6.9922701216E+00  6.0301180644E+00  3.5636022765E-01  3.2102743235E-01  7.2433303396E-01
  1.9839464883E+04  7.0426240661E+00  6.0261351203E+00  3.6162394256E-01  3.2538949170E-01  7.2592525089E-01
  1.9936454849E+04  7.0930924077E+00  6.0221742119E+00  3.6693908076E-01  3.2978449736E-01  7.2750407596E-01
  2.0033444816E+04  7.1438561977E+00  6.0183221823E+00  3.7231770575E-01  3.3422260357E-01  7.2906957843E-01
  2.0130434783E+04  7.1948015048E+00  6.0145226560E+00  3.7777126830E-01  3.3871232093E-01  7.3062182935E-01
  2.0227424749E+04  7.2458626318E+00  6.0107437737E+00  3.8327784947E-01  3.4323546537E-01  7.3216090144E-01
  2.0324414716E+04  7.2970856633E+00  6.0070070640E+00  3.8883770577E-01  3.4779217682E-01  7.3368686904E-01
  2.0421404682E+04  7.3486281931E+00  6.0033852661E+00  3.9445109369E-01  3.5238303872E-01  7.3519980795E-01
  2.0518394649E+04  7.4002879846E+00  5.9997827971E+00  4.0011826973E-01  3.5700724421E-01  7.3669979544E-01
  2.0615384615E+04  7.4520647483E+00  5.9961994633E+00  4.0583949039E-01  3.6166474801E-01  7.3818691009E-01
  2.0712374582E+04  7.5041045262E+00  5.9927012340E+00  4.1161501216E-01  3.6635609831E-01  7.3966123174E-01
  2.0809364548E+04  7.5563698509E+00  5.9892697513E+00  4.1744509152E-01  3.7108111778E-01  7.4112284142E-01
  2.0906354515E+04  7.6087536224E+00  5.9858561763E+00  4.2332998495E-01  3.7583932565E-01  7.4257182126E-01
  2.1003344482E+04  7.6612555575E+00  5.9824603333E+00  4.2926994893E-01  3.8063066718E-01  7.4400825402E-01
  2.1100334448E+04  7.7141090308E+00  5.9791840077E+00  4.3526523994E-01  3.8545609222E-01  7.4543221673E-01
  2.1197324415E+04  7.7671067078E+00  5.9759350916E+00  4.4131611445E-01  3.9031467954E-01  7.4684378293E-01
  2.1294314381E+04  7.8202240554E+00  5.9727027606E+00  4.4742282892E-01  3.9520626460E-01  7.4824302757E-01
  2.1391304348E+04  7.8735054487E+00  5.9695058078E+00  4.5358563982E-01  4.0013098380E-01  7.4963002695E-01
  2.1488294314E+04  7.9271239258E+00  5.9664166910E+00  4.5980480360E-01  4.0508956843E-01  7.5100485859E-01
  2.1585284281E+04  7.9808636083E+00  5.9633430738E+00  4.6608057672E-01  4.1008099598E-01  7.5236760122E-01
  2.1682274247E+04  8.0347242236E+00  5.9602848092E+00  4.7241321564E-01  4.1510519574E-01  7.5371833466E-01
  2.1779264214E+04  8.0888042913E+00  5.9572822596E+00  4.7880297680E-01  4.2016256254E-01  7.5505713975E-01
  2.1876254181E+04  8.1431732240E+00  5.9543627799E+00  4.8525011664E-01  4.2525337495E-01  7.5638409828E-01
  2.1973244147E+04  8.1976646566E+00  5.9514576365E+00  4.9175489160E-01  4.3037677961E-01  7.5769929293E-01
  2.2070234114E+04  8.2522783224E+00  5.9485666964E+00  4.9831755812E-01  4.3553269675E-01  7.5900280721E-01
  2.2167224080E+04  8.3071509745E+00  5.9457441282E+00  5.0493837263E-01  4.4072172821E-01  7.6029472534E-01
  2.2264214047E+04  8.3622801569E+00  5.9429877916E+00  5.1161759156E-01  4.4594380602E-01  7.6157513226E-01
  2.2361204013E+04  8.4175331715E+00  5.9402447059E+00  5.1835575028E-01  4.5119840311E-01  7.6284411353E-01
  2.2458193980E+04  8.4729097576E+00  5.9375147503E+00  5.2520681998E-01  4.5652601457E-01  7.6410175483E-01
  2.2555183946E+04  8.5285678188E+00  5.9348584158E+00  5.3211825300E-01  4.6188725354E-01  7.6534813700E-01
  2.2652173913E+04  8.5844671284E+00  5.9322591124E+00  5.3909031726E-01  4.6728184713E-01  7.6658333827E-01
  2.2749163880E+04  8.6404916402E+00  5.9296720458E+00  5.4612328067E-01  4.7270910012E-01  7.6780743773E-01
  2.2846153846E+04  8.6966410990E+00  5.9270971067E+00  5.5321741119E-01  4.7816891513E-01  7.6902051528E-01
  2.2943143813E+04  8.7530762750E+00  5.9245938836E+00  5.6037297679E-01  4.8366208180E-01  7.7022265155E-01
  2.3040133779E+04  8.8097556683E+00  5.9221458583E+00  5.6759024547E-01  4.8918830172E-01  7.7141392786E-01
  2.3137123746E+04  8.8665616711E+00  5.9197091218E+00  5.7486948526E-01  4.9474683120E-01  7.7259442612E-01
  2.3234113712E+04  8.9234940338E+00  5.9172835749E+00  5.8221096419E-01  5.0033756406E-01  7.7376422881E-01
  2.3331103679E+04  8.9806968770E+00  5.9149209226E+00  5.8961495035E-01  5.0596122900E-01  7.7492341892E-01
  2.3428093645E+04  9.0381663853E+00  5.9126187491E+00  5.9708171182E-01  5.1161772587E-01  7.7607207987E-01
  2.3525083612E+04  9.0957639476E+00  5.9103269773E+00  6.0461151671E-01  5.1730614990E-01  7.7721029546E-01
  2.3622073579E+04  9.1534893195E+00  5.9080455175E+00  6.1220463318E-01  5.2302638635E-01  7.7833814986E-01
  2.3719063545E+04  9.2114491938E+00  5.9058114356E+00  6.1986132937E-01  5.2877896838E-01  7.7945572748E-01
  2.3816053512E+04  9.2697189188E+00  5.9036499927E+00  6.2758187349E-01  5.3456426592E-01  7.8056311274E-01
  2.3913043478E+04  9.3281181791E+00  5.9014981206E+00  6.3536653372E-01  5.4038107663E-01  7.8166038614E-01
  2.4010033445E+04  9.3866467357E+00  5.8993557383E+00  6.4321557832E-01  5.4622927751E-01  7.8274762578E-01
  2.4107023411E+04  9.4453517818E+00  5.8972387300E+00  6.5112927552E-01  5.5210904524E-01  7.8382491022E-01
  2.4204013378E+04  9.5044318911E+00  5.8952131794E+00  6.5910789361E-01  5.5802154408E-01  7.8489231847E-01
  2.4301003344E+04  9.5636430538E+00  5.8931964209E+00  6.6715170088E-01  5.6396511161E-01  7.8594992989E-01
  2.4397993311E+04  9.6229850358E+00  5.8911883815E+00  6.7526096566E-01  5.6993961681E-01  7.8699782419E-01
  2.4494983278E+04  9.6824576045E+00  5.8891889890E+00  6.8343595629E-01  5.7594492644E-01  7.8803608137E-01
  2.4591973244E+04  9.7423228579E+00  5.8872831862E+00  6.9167694112E-01  5.8198267201E-01  7.8906478166E-01
  2.4688963211E+04  9.8023561886E+00  5.8853970145E+00  6.9998418856E-01  5.8805124855E-01  7.9008400548E-01
  2.4785953177E+04  9.8625218982E+00  5.8835188388E+00  7.0835796700E-01  5.9415028117E-01  7.9109383341E-01
  2.4882943144E+04  9.9228197590E+00  5.8816485942E+00  7.1679854488E-01  6.0027962896E-01  7.9209434613E-01
  2.4979933110E+04  9.9834068838E+00  5.8798360675E+00  7.2530619065E-01  6.0644025983E-01  7.9308562438E-01
  2.5076923077E+04  1.0044270067E+01  5.8780761593E+00  7.3392396966E-01  6.1266179695E-01  7.9406774893E-01
  2.5173913043E+04  1.0105267204E+01  5.8763235684E+00  7.4262147978E-01  6.1892151179E-01  7.9504079823E-01
  2.5270903010E+04  1.0166398071E+01  5.8745782365E+00  7.5138794495E-01  6.2521152695E-01  7.9600484766E-01
  2.5367892977E+04  1.0227689166E+01  5.8728488737E+00  7.6022364320E-01  6.3153189400E-01  7.9695997258E-01
  2.5464882943E+04  1.0289372197E+01  5.8712108846E+00  7.6912885264E-01  6.3788425011E-01  7.9790624857E-01
  2.5561872910E+04  1.0351190625E+01  5.8695795766E+00  7.7810385138E-01  6.4426651233E-01  7.9884375133E-01
  2.5658862876E+04  1.0413144232E+01  5.8679548973E+00  7.8714891761E-01  6.5067852375E-01  7.9977255669E-01
  2.5755852843E+04  1.0475232801E+01  5.8663367949E+00  7.9626432954E-01  6.5712012546E-01  8.0069274054E-01
  2.5852842809E+04  1.0537609848E+01  5.8647787498E+00  8.0545036543E-01  6.6359245151E-01  8.0160437880E-01
  2.5949832776E+04  1.0600231299E+01  5.8632645445E+00  8.1470730359E-01  6.7009500825E-01  8.0250754741E-01
  2.6046822742E+04  1.0662989189E+01  5.8617563769E+00  8.2403542236E-01  6.7662673401E-01  8.0340232224E-01
  2.6143812709E+04  1.0725883304E+01  5.8602542007E+00  8.3343500013E-01  6.8318746295E-01  8.0428877914E-01
  2.6240802676E+04  1.0788913936E+01  5.8587581588E+00  8.4290631533E-01  6.8977703198E-01  8.0516699382E-01
  2.6337792642E+04  1.0852318974E+01  5.8573570864E+00  8.5244964644E-01  6.9639750848E-01  8.0603704089E-01
  2.6434782609E+04  1.0915861518E+01  5.8559614973E+00  8.6206527197E-01  7.0304654595E-01  8.0689899097E-01
  2.6531772575E+04  1.0979541359E+01  5.8545713499E+00  8.7175347047E-01  7.0972397196E-01  8.0775291592E-01
  2.6628762542E+04  1.1043358291E+01  5.8531866034E+00  8.8151452054E-01  7.1642961225E-01  8.0859888781E-01
  2.6725752508E+04  1.1107384770E+01  5.8518368335E+00  8.9134870082E-01  7.2316405106E-01  8.0943697862E-01
  2.6822742475E+04  1.1171691217E+01  5.8505500838E+00  9.0125628999E-01  7.2992788188E-01  8.1026726027E-01
  2.6919732441E+04  1.1236135840E+01  5.8492682600E+00  9.1123756677E-01  7.3671946033E-01  8.1108980436E-01
  2.7016722408E+04  1.1300718439E+01  5.8479913255E+00  9.2129280992E-01  7.4353860603E-01  8.1190468112E-01
  2.7113712375E+04  1.1365438810E+01  5.8467192443E+00  9.3142229825E-01  7.5038513683E-01  8.1271196049E-01
  2.7210702341E+04  1.1430410127E+01  5.8455029030E+00  9.4162631059E-01  7.5726022113E-01  8.1351163281E-01
  2.7307692308E+04  1.1495597493E+01  5.8443258767E+00  9.5190512584E-01  7.6416329813E-01  8.1430417531E-01
  2.7404682274E+04  1.1560923525E+01  5.8431532593E+00  9.6225913710E-01  7.7109334406E-01  8.1509197250E-01
  2.7501672241E+04  1.1626388025E+01  5.8419850187E+00  9.7268899734E-01  7.7805040961E-01  8.1587599561E-01
  2.7598662207E+04  1.1691990797E+01  5.8408211231E+00  9.8319450808E-01  7.8503399760E-01  8.1665626487E-01
  2.7695652174E+04  1.1757859361E+01  5.8397260183E+00  9.9377594845E-01  7.9204568269E-01  8.1743280262E-01
  2.7792642140E+04  1.1823905527E+01  5.8386543887E+00  1.0044335976E+00  7.9908409842E-01  8.1820563130E-01
  2.7889632107E+04  1.1890090662E+01  5.8375866881E+00  1.0151677348E+00  8.0614852575E-01  8.1897477316E-01
  2.7986622074E+04  1.1956414576E+01  5.8365228882E+00  1.0259786392E+00  8.1323877004E-01  8.1974025031E-01
  2.8083612040E+04  1.2022877076E+01  5.8354629616E+00  1.0368665902E+00  8.2035463516E-01  8.2050208466E-01
  2.8180602007E+04  1.2089599181E+01  5.8344775071E+00  1.0478318670E+00  8.2749791210E-01  8.2126029798E-01
  2.8277591973E+04  1.2156480426E+01  5.8335071994E+00  1.0588747490E+00  8.3466680145E-01  8.2201491188E-01
  2.8374581940E+04  1.2223500762E+01  5.8325403746E+00  1.0699955156E+00  8.4186078122E-01  8.2276594779E-01
  2.8471571906E+04  1.2290660000E+01  5.8315770084E+00  1.0811944463E+00  8.4907965052E-01  8.2351342701E-01
  2.8568561873E+04  1.2357957953E+01  5.8306170767E+00  1.0924718206E+00  8.5632320716E-01  8.2425737064E-01
  2.8665551839E+04  1.2425494250E+01  5.8297302515E+00  1.1038279179E+00  8.6359325917E-01  8.2499779968E-01
  2.8762541806E+04  1.2493185289E+01  5.8288574237E+00  1.1152630178E+00  8.7088796532E-01  8.2573473492E-01
  2.8859531773E+04  1.2561015354E+01  5.8279876641E+00  1.1267773999E+00  8.7820681051E-01  8.2646819704E-01
  2.8956521739E+04  1.2628984261E+01  5.8271209518E+00  1.1383713439E+00  8.8554958827E-01  8.2719820655E-01
  2.9053511706E+04  1.2697091827E+01  5.8262572660E+00  1.1500451294E+00  8.9291609090E-01  8.2792478380E-01
  2.9150501672E+04  1.2765407803E+01  5.8254585766E+00  1.1617990361E+00  9.0030793801E-01  8.2864794902E-01
  2.9247491639E+04  1.2833881823E+01  5.8246796021E+00  1.1736333438E+00  9.0772364995E-01  8.2936772227E-01
  2.9344481605E+04  1.2902494619E+01  5.8239033103E+00  1.1855483322E+00  9.1516252235E-01  8.3008412346E-01
  2.9441471572E+04  1.2971246011E+01  5.8231296829E+00  1.1975442811E+00  9.2262434376E-01  8.3079717238E-01
  2.9538461538E+04  1.3040135822E+01  5.8223587022E+00  1.2096214705E+00  9.3010890163E-01  8.3150688865E-01
  2.9635451505E+04  1.3109202310E+01  5.8216381481E+00  1.2217801802E+00  9.3761741881E-01  8.3221329176E-01
  2.9732441472E+04  1.3178431043E+01  5.8209496005E+00  1.2340206902E+00  9.4514918633E-01  8.3291640168E-01
  2.9829431438E+04  1.3247798118E+01  5.8202633763E+00  1.2463432804E+00  9.5270311155E-01  8.3361623893E-01
  2.9926421405E+04  1.3317303361E+01  5.8195794603E+00  1.2587482308E+00  9.6027897865E-01  8.3431282346E-01
  3.0023411371E+04  1.3386946598E+01  5.8188978372E+00  1.2712601817E+00  9.6789069193E-01  8.3500617501E-01
  3.0120401338E+04  1.3456744493E+01  5.8182458671E+00  1.2839326560E+00  9.7556946189E-01  8.3569631320E-01
  3.0217391304E+04  1.3526710086E+01  5.8176444712E+00  1.2966900192E+00  9.8327158228E-01  8.3638325746E-01
  3.0314381271E+04  1.3596813490E+01  5.8170450644E+00  1.3095325637E+00  9.9099533074E-01  8.3706702710E-01
  3.0411371237E+04  1.3667054535E+01  5.8164476338E+00  1.3224605823E+00  9.9874048324E-01  8.3774764124E-01
  3.0508361204E+04  1.3737433050E+01  5.8158521666E+00  1.3354743678E+00  1.0065068148E+00  8.3842511887E-01
  3.0605351171E+04  1.3807949684E+01  5.8152596632E+00  1.3485742129E+00  1.0142941349E+00  8.3909947881E-01
  3.0702341137E+04  1.3878662823E+01  5.8147422358E+00  1.3617604106E+00  1.0221047646E+00  8.3977073974E-01
  3.0799331104E+04  1.3949513351E+01  5.8142264862E+00  1.3750332538E+00  1.0299359626E+00  8.4043892020E-01
  3.0896321070E+04  1.4020501101E+01  5.8137124038E+00  1.3883930355E+00  1.0377875017E+00  8.4110403856E-01
  3.0993311037E+04  1.4091625905E+01  5.8131999779E+00  1.4018400487E+00  1.0456591536E+00  8.4176611307E-01
  3.1090301003E+04  1.4162887598E+01  5.8126891980E+00  1.4153745866E+00  1.0535506894E+00  8.4242516183E-01
  3.1187290970E+04  1.4234330940E+01  5.8122217476E+00  1.4289969423E+00  1.0614635200E+00  8.4308120278E-01
