#[MATERIAL DEFINITION FOR MC-GPU: interaction mean free path and sampling data from PENELOPE 2006]
#[MATERIAL NAME]
# MATERIAL14                                                    
#[NOMINAL DENSITY (g/cm^3)]
#   1.00000000
#[NUMBER OF DATA VALUES]
#   1495
#[MEAN FREE PATHS (cm) (ie, average distance between interactions)]
#[Energy (eV)     | Rayleigh        | Compton         | Photoelectric   | TOTAL (+pair prod) (cm) | Rayleigh: max cumul prob F^2]
  5.0000000000E+03  1.5327010934E+00  8.4842485609E+00  8.9394441004E-03  8.8783069336E-03  2.7553088196E-01
  5.0969899666E+03  1.5624237427E+00  8.4120181060E+00  9.4226319887E-03  9.3557299302E-03  2.8042165872E-01
  5.1939799331E+03  1.5923559160E+00  8.3427505378E+00  9.9219702916E-03  9.8488886538E-03  2.8526098495E-01
  5.2909698997E+03  1.6224935170E+00  8.2762732692E+00  1.0437676626E-02  1.0357979587E-02  2.9005078477E-01
  5.3879598662E+03  1.6528323719E+00  8.2124260126E+00  1.0969967283E-02  1.0883197199E-02  2.9479289430E-01
  5.4849498328E+03  1.6833682441E+00  8.1510597167E+00  1.1519194689E-02  1.1424869159E-02  2.9948904919E-01
  5.5819397993E+03  1.7140968492E+00  8.0920356117E+00  1.2087093366E-02  1.1984680867E-02  3.0414094763E-01
  5.6789297659E+03  1.7450138684E+00  8.0352243511E+00  1.2672347703E-02  1.2561316567E-02  3.0875024302E-01
  5.7759197324E+03  1.7761149625E+00  7.9805052393E+00  1.3275172356E-02  1.3154965888E-02  3.1331845745E-01
  5.8729096990E+03  1.8073957856E+00  7.9277655338E+00  1.3895780787E-02  1.3765816502E-02  3.1784703891E-01
  5.9698996656E+03  1.8388520035E+00  7.8768998103E+00  1.4534385291E-02  1.4394054132E-02  3.2233741052E-01
  6.0668896321E+03  1.8704795899E+00  7.8278091191E+00  1.5192701233E-02  1.5041336971E-02  3.2679091178E-01
  6.1638795987E+03  1.9022753364E+00  7.7804000314E+00  1.5870235813E-02  1.5707155703E-02  3.3120876125E-01
  6.2608695652E+03  1.9342367983E+00  7.7345843106E+00  1.6568919737E-02  1.6393374336E-02  3.3559215185E-01
  6.3578595318E+03  1.9663615709E+00  7.6902792123E+00  1.7293807236E-02  1.7104907249E-02  3.3994227954E-01
  6.4548494983E+03  1.9986563135E+00  7.6474443418E+00  1.8038593413E-02  1.7835551102E-02  3.4426016635E-01
  6.5518394649E+03  2.0311208425E+00  7.6060137136E+00  1.8806696420E-02  1.8588617017E-02  3.4854672114E-01
  6.6488294314E+03  2.0637434138E+00  7.5658798769E+00  1.9596588519E-02  1.9362576706E-02  3.5280284694E-01
  6.7458193980E+03  2.0965214722E+00  7.5269779871E+00  2.0407387346E-02  2.0156536036E-02  3.5702944101E-01
  6.8428093645E+03  2.1294524600E+00  7.4892470897E+00  2.1239329749E-02  2.0970693966E-02  3.6122739485E-01
  6.9397993311E+03  2.1625338242E+00  7.4526298564E+00  2.2092651734E-02  2.1805247548E-02  3.6539755685E-01
  7.0367892977E+03  2.1957640425E+00  7.4170760372E+00  2.2969249861E-02  2.2662009305E-02  3.6954058165E-01
  7.1337792642E+03  2.2291715298E+00  7.3826425045E+00  2.3870600500E-02  2.3542381461E-02  3.7365707112E-01
  7.2307692308E+03  2.2627250789E+00  7.3491709309E+00  2.4794306734E-02  2.4443988324E-02  3.7774762882E-01
  7.3277591973E+03  2.2964228792E+00  7.3166155210E+00  2.5740607668E-02  2.5367024838E-02  3.8181285918E-01
  7.4247491639E+03  2.3302630609E+00  7.2849331615E+00  2.6709741632E-02  2.6311683994E-02  3.8585336680E-01
  7.5217391304E+03  2.3642622442E+00  7.2541409184E+00  2.7701946199E-02  2.7278160109E-02  3.8986968568E-01
  7.6187290970E+03  2.3984254383E+00  7.2242160051E+00  2.8717458195E-02  2.8266643976E-02  3.9386221949E-01
  7.7157190635E+03  2.4327276637E+00  7.1950483182E+00  2.9756513707E-02  2.9277318882E-02  3.9783136430E-01
  7.8127090301E+03  2.4671668362E+00  7.1666035780E+00  3.0819348098E-02  3.0310370020E-02  4.0177752075E-01
  7.9096989967E+03  2.5017706541E+00  7.1389320328E+00  3.1906196017E-02  3.1365986870E-02  4.0570109350E-01
  8.0066889632E+03  2.5365301826E+00  7.1119771036E+00  3.3018566948E-02  3.2445581584E-02  4.0960246523E-01
  8.1036789298E+03  2.5714230720E+00  7.0856516483E+00  3.4173214890E-02  3.3565264461E-02  4.1348191105E-01
  8.2006688963E+03  2.6064568187E+00  7.0599527853E+00  3.5353672713E-02  3.4709072552E-02  4.1733968467E-01
  8.2976588629E+03  2.6416711292E+00  7.0349527499E+00  3.6560198473E-02  3.5877213458E-02  4.2117604619E-01
  8.3946488294E+03  2.6770164483E+00  7.0105031018E+00  3.7793049666E-02  3.7069871370E-02  4.2499126142E-01
  8.4916387960E+03  2.7124925961E+00  6.9865857019E+00  3.9052483228E-02  3.8287239769E-02  4.2878557963E-01
  8.5886287625E+03  2.7481623286E+00  6.9633202563E+00  4.0338755545E-02  3.9529527541E-02  4.3255917058E-01
  8.6856187291E+03  2.7839601795E+00  6.9405370036E+00  4.1652122462E-02  4.0796907207E-02  4.3631219204E-01
  8.7826086957E+03  2.8198919195E+00  6.9182337151E+00  4.2992839287E-02  4.2089567855E-02  4.4004480874E-01
  8.8795986622E+03  2.8560163210E+00  6.8965111945E+00  4.4361160797E-02  4.3407713127E-02  4.4375719140E-01
  8.9765886288E+03  2.8922651898E+00  6.8752118488E+00  4.5757341249E-02  4.4751506478E-02  4.4744948139E-01
  9.0735785953E+03  2.9286655495E+00  6.8543749726E+00  4.7188841356E-02  4.6128024566E-02  4.5112176999E-01
  9.1705685619E+03  2.9652427341E+00  6.8340285489E+00  4.8651426545E-02  4.7533150753E-02  4.5477415125E-01
  9.2675585284E+03  3.0019403388E+00  6.8140545124E+00  5.0143124297E-02  4.8964913380E-02  4.5840672627E-01
  9.3645484950E+03  3.0388243879E+00  6.7945551068E+00  5.1664197106E-02  5.0423519309E-02  4.6201959499E-01
  9.4615384615E+03  3.0758529462E+00  6.7754407270E+00  5.3214907005E-02  5.1909135313E-02  4.6561281420E-01
  9.5585284281E+03  3.1130189056E+00  6.7566891295E+00  5.4795515575E-02  5.3421937772E-02  4.6918642940E-01
  9.6555183946E+03  3.1503816168E+00  6.7383794752E+00  5.6406283950E-02  5.4962127385E-02  4.7274049346E-01
  9.7525083612E+03  3.1878583750E+00  6.7203707570E+00  5.8047472817E-02  5.6529846286E-02  4.7627507038E-01
  9.8494983278E+03  3.2255345503E+00  6.7027798224E+00  5.9719342429E-02  5.8125302800E-02  4.7979021709E-01
  9.9464882943E+03  3.2633465825E+00  6.6854996935E+00  6.1422152601E-02  5.9748641061E-02  4.8328592807E-01
  1.0043478261E+04  3.3013196874E+00  6.6685573387E+00  6.3163714241E-02  6.1407177941E-02  4.8676219898E-01
  1.0140468227E+04  3.3394696265E+00  6.6519612963E+00  6.4946599701E-02  6.3103246324E-02  4.9021903331E-01
  1.0237458194E+04  3.3777455779E+00  6.6356354751E+00  6.6762003409E-02  6.4828406270E-02  4.9365644199E-01
  1.0334448161E+04  3.4162366762E+00  6.6196841784E+00  6.8610199024E-02  6.6582874715E-02  4.9707444296E-01
  1.0431438127E+04  3.4548303656E+00  6.6039563749E+00  7.0491459851E-02  6.8366766678E-02  5.0047306082E-01
  1.0528428094E+04  3.4936575561E+00  6.5886037158E+00  7.2406058841E-02  7.0180318632E-02  5.0385232241E-01
  1.0625418060E+04  3.5325928769E+00  6.5734661433E+00  7.4354268595E-02  7.2023631097E-02  5.0721221062E-01
  1.0722408027E+04  3.5717417888E+00  6.5586594542E+00  7.6336361367E-02  7.3896925877E-02  5.1055268854E-01
  1.0819397993E+04  3.6110211213E+00  6.5440794977E+00  7.8352609068E-02  7.5800318425E-02  5.1387372771E-01
  1.0916387960E+04  3.6504985308E+00  6.5297946815E+00  8.0403283270E-02  7.7734007618E-02  5.1717530712E-01
  1.1013377926E+04  3.6901238090E+00  6.5157416915E+00  8.2488655208E-02  7.9698121005E-02  5.2045741294E-01
  1.1110367893E+04  3.7299365526E+00  6.5019561339E+00  8.4608995783E-02  8.1692837982E-02  5.2372003813E-01
  1.1207357860E+04  3.7699092478E+00  6.4884012766E+00  8.6769749808E-02  8.3723111153E-02  5.2696318214E-01
  1.1304347826E+04  3.8100642196E+00  6.4750937307E+00  8.8979890755E-02  8.5797177737E-02  5.3018683470E-01
  1.1401337793E+04  3.8503853234E+00  6.4620098514E+00  9.1226610730E-02  8.7902979184E-02  5.3339095565E-01
  1.1498327759E+04  3.8908894721E+00  6.4491603331E+00  9.3510193651E-02  9.0040682427E-02  5.3657550867E-01
  1.1595317726E+04  3.9315594800E+00  6.4365218321E+00  9.5830923170E-02  9.2210427722E-02  5.3974046467E-01
  1.1692307692E+04  3.9724198058E+00  6.4241115247E+00  9.8189082676E-02  9.4412383272E-02  5.4288580155E-01
  1.1789297659E+04  4.0134386997E+00  6.4118942450E+00  1.0058495529E-01  9.6646672638E-02  5.4601150389E-01
  1.1886287625E+04  4.0546622518E+00  6.3999054131E+00  1.0301882389E-01  9.8913476682E-02  5.4911756268E-01
  1.1983277592E+04  4.0960294834E+00  6.3880865366E+00  1.0549097107E-01  1.0121288944E-01  5.5220396357E-01
  1.2080267559E+04  4.1376233566E+00  6.3765024470E+00  1.0800167918E-01  1.0354511853E-01  5.5527067246E-01
  1.2177257525E+04  4.1793378300E+00  6.3650604012E+00  1.1055123033E-01  1.0591021276E-01  5.5831765985E-01
  1.2274247492E+04  4.2213091623E+00  6.3538652512E+00  1.1313990636E-01  1.0830842367E-01  5.6134490312E-01
  1.2371237458E+04  4.2633692169E+00  6.3427796229E+00  1.1576798887E-01  1.1073973587E-01  5.6435238624E-01
  1.2468227425E+04  4.3057251992E+00  6.3319584911E+00  1.1843575921E-01  1.1320446542E-01  5.6734009955E-01
  1.2565217391E+04  4.3481688806E+00  6.3212394588E+00  1.2116190007E-01  1.1571933422E-01  5.7030804404E-01
  1.2662207358E+04  4.3908769110E+00  6.3107492901E+00  1.2393813158E-01  1.1827675638E-01  5.7325624867E-01
  1.2759197324E+04  4.4337145969E+00  6.3003856861E+00  1.2675595640E-01  1.2086869928E-01  5.7618469204E-01
  1.2856187291E+04  4.4767700188E+00  6.2902075084E+00  1.2961567216E-01  1.2349537835E-01  5.7909334762E-01
  1.2953177258E+04  4.5200103388E+00  6.2801878068E+00  1.3251757633E-01  1.2615688801E-01  5.8198219572E-01
  1.3050167224E+04  4.5634103073E+00  6.2703052860E+00  1.3546196620E-01  1.2885332419E-01  5.8485122320E-01
  1.3147157191E+04  4.6070620090E+00  6.2606186142E+00  1.3844913888E-01  1.3158490772E-01  5.8770042329E-01
  1.3244147157E+04  4.6508058137E+00  6.2510179414E+00  1.4147939131E-01  1.3435158045E-01  5.9052979530E-01
  1.3341137124E+04  4.6948748103E+00  6.2416520924E+00  1.4455302025E-01  1.3715372060E-01  5.9333934445E-01
  1.3438127090E+04  4.7390405565E+00  6.2323698322E+00  1.4767032229E-01  1.3999118000E-01  5.9612908162E-01
  1.3535117057E+04  4.7834532057E+00  6.2232633295E+00  1.5083159387E-01  1.4286424308E-01  5.9889902315E-01
  1.3632107023E+04  4.8280498201E+00  6.2142898930E+00  1.5403713122E-01  1.4577294308E-01  6.0164919066E-01
  1.3729096990E+04  4.8728008895E+00  6.2054284463E+00  1.5728842620E-01  1.4871841427E-01  6.0437961080E-01
  1.3826086957E+04  4.9178373523E+00  6.1967547130E+00  1.6058667444E-01  1.5170172261E-01  6.0709030672E-01
  1.3923076923E+04  4.9629708686E+00  6.1881536108E+00  1.6393017839E-01  1.5472093713E-01  6.0978127679E-01
  1.4020066890E+04  5.0084060974E+00  6.1797418215E+00  1.6731923490E-01  1.5777642414E-01  6.1245251894E-01
  1.4117056856E+04  5.0539904200E+00  6.1714281402E+00  1.7075414062E-01  1.6086807345E-01  6.1510403732E-01
  1.4214046823E+04  5.0997581660E+00  6.1632296296E+00  1.7423519207E-01  1.6399601938E-01  6.1773584206E-01
  1.4311036789E+04  5.1458024274E+00  6.1551952773E+00  1.7776268560E-01  1.6716048381E-01  6.2034794907E-01
  1.4408026756E+04  5.1919471950E+00  6.1472255603E+00  1.8133691738E-01  1.7036129592E-01  6.2294037986E-01
  1.4505016722E+04  5.2384081769E+00  6.1394346388E+00  1.8495818344E-01  1.7359885587E-01  6.2551316128E-01
  1.4602006689E+04  5.2850241063E+00  6.1317333398E+00  1.8862677967E-01  1.7687300281E-01  6.2806632537E-01
  1.4698996656E+04  5.3318080541E+00  6.1241265979E+00  1.9234300176E-01  1.8018382812E-01  6.3059990914E-01
  1.4795986622E+04  5.3789044126E+00  6.1166865094E+00  1.9610714528E-01  1.8353163538E-01  6.3311395439E-01
  1.4892976589E+04  5.4261049840E+00  6.1093039832E+00  1.9991950563E-01  1.8691616050E-01  6.3560850391E-01
  1.4989966555E+04  5.4735873431E+00  6.1020664784E+00  2.0378037806E-01  1.9033775996E-01  6.3808358421E-01
  1.5086956522E+04  5.5212794074E+00  6.0949354310E+00  2.0772914254E-01  1.9383041161E-01  6.4053922095E-01
  1.5183946488E+04  5.5690774062E+00  6.0878583343E+00  2.1173285462E-01  1.9736490511E-01  6.4297544535E-01
  1.5280936455E+04  5.6172598287E+00  6.0809692779E+00  2.1578739125E-01  2.0093792708E-01  6.4539229390E-01
  1.5377926421E+04  5.6655565713E+00  6.0741345309E+00  2.1989306691E-01  2.0454906256E-01  6.4778980814E-01
  1.5474916388E+04  5.7140404399E+00  6.0673884698E+00  2.2405019598E-01  2.0819849846E-01  6.5016803451E-01
  1.5571906355E+04  5.7628387510E+00  6.0607900060E+00  2.2825909279E-01  2.1188653520E-01  6.5252702412E-01
  1.5668896321E+04  5.8117469228E+00  6.0542396229E+00  2.3252007156E-01  2.1561283573E-01  6.5486683257E-01
  1.5765886288E+04  5.8609169216E+00  6.0478085306E+00  2.3683344644E-01  2.1937774566E-01  6.5718751980E-01
  1.5862876254E+04  5.9103315343E+00  6.0414862355E+00  2.4119953147E-01  2.2318128347E-01  6.5948914977E-01
  1.5959866221E+04  5.9598577476E+00  6.0352090281E+00  2.4561864066E-01  2.2702321782E-01  6.6177178183E-01
  1.6056856187E+04  6.0097073991E+00  6.0290747373E+00  2.5009108788E-01  2.3090403395E-01  6.6403546499E-01
  1.6153846154E+04  6.0597448104E+00  6.0230179194E+00  2.5461718695E-01  2.3482348605E-01  6.6628025178E-01
  1.6250836120E+04  6.1098955636E+00  6.0170033890E+00  2.5919725161E-01  2.3878143890E-01  6.6850619937E-01
  1.6347826087E+04  6.1604178805E+00  6.0111485854E+00  2.6383159551E-01  2.4277850419E-01  6.7071336937E-01
  1.6444816054E+04  6.2110844748E+00  6.0053472046E+00  2.6852053222E-01  2.4681419959E-01  6.7290182765E-01
  1.6541806020E+04  6.2618688370E+00  5.9995867048E+00  2.7326437523E-01  2.5088847786E-01  6.7507164414E-01
  1.6638795987E+04  6.3130536444E+00  5.9939936457E+00  2.7806343795E-01  2.5500203882E-01  6.7722289267E-01
  1.6735785953E+04  6.3643556934E+00  5.9884382636E+00  2.8291803372E-01  2.5915422230E-01  6.7935565080E-01
  1.6832775920E+04  6.4157945634E+00  5.9829290045E+00  2.8782847579E-01  2.6334508039E-01  6.8146999904E-01
  1.6929765886E+04  6.4676192466E+00  5.9775754064E+00  2.9279507733E-01  2.6757526129E-01  6.8356600698E-01
  1.7026755853E+04  6.5195629108E+00  5.9722571409E+00  2.9781815145E-01  2.7184409348E-01  6.8564374388E-01
  1.7123745819E+04  6.5716479210E+00  5.9669837765E+00  3.0289801116E-01  2.7615162975E-01  6.8770328525E-01
  1.7220735786E+04  6.6241185277E+00  5.9618611294E+00  3.0803496939E-01  2.8049853556E-01  6.8974471032E-01
  1.7317725753E+04  6.6767098565E+00  5.9567716138E+00  3.1322933903E-01  2.8488409312E-01  6.9176810189E-01
  1.7414715719E+04  6.7294321505E+00  5.9517194368E+00  3.1848143285E-01  2.8930831422E-01  6.9377354619E-01
  1.7511705686E+04  6.7825545704E+00  5.9468197110E+00  3.2379650023E-01  2.9377602971E-01  6.9576113263E-01
  1.7608695652E+04  6.8357994553E+00  5.9419510482E+00  3.2920652048E-01  2.9831240516E-01  6.9773095373E-01
  1.7705685619E+04  6.8891664107E+00  5.9371130820E+00  3.3467634777E-01  3.0288814336E-01  6.9968310490E-01
  1.7802675585E+04  6.9429292095E+00  5.9324214810E+00  3.4020630833E-01  3.0750406440E-01  7.0161861123E-01
  1.7899665552E+04  6.9968329379E+00  5.9277661372E+00  3.4579672837E-01  3.1215937787E-01  7.0353882670E-01
  1.7996655518E+04  7.0508604823E+00  5.9231395741E+00  3.5144793405E-01  3.1685399689E-01  7.0544380693E-01
  1.8093645485E+04  7.1052424650E+00  5.9186380119E+00  3.5716025149E-01  3.2158864007E-01  7.0733360212E-01
  1.8190635452E+04  7.1598099021E+00  5.9141888239E+00  3.6293400680E-01  3.2636274074E-01  7.0920826543E-01
  1.8287625418E+04  7.2145028945E+00  5.9097666134E+00  3.6876952602E-01  3.3117606081E-01  7.1106785279E-01
  1.8384615385E+04  7.2694931534E+00  5.9054421359E+00  3.7466713519E-01  3.3602914826E-01  7.1291242284E-01
  1.8481605351E+04  7.3247290170E+00  5.9011923308E+00  3.8062716029E-01  3.4092179914E-01  7.1474203678E-01
  1.8578595318E+04  7.3800921689E+00  5.8969678044E+00  3.8664992727E-01  3.4585355454E-01  7.1655675829E-01
  1.8675585284E+04  7.4356794451E+00  5.8928079469E+00  3.9273576205E-01  3.5082471163E-01  7.1835665338E-01
  1.8772575251E+04  7.4915883103E+00  5.8887511152E+00  3.9889049869E-01  3.5583997361E-01  7.2014179032E-01
  1.8869565217E+04  7.5476261904E+00  5.8847179609E+00  4.0511193453E-01  3.6089653765E-01  7.2191223954E-01
  1.8966555184E+04  7.6037988875E+00  5.8807107144E+00  4.1139762963E-01  3.6599214933E-01  7.2366807346E-01
  1.9063545151E+04  7.6603851869E+00  5.8768407860E+00  4.1774791208E-01  3.7112783743E-01  7.2540936649E-01
  1.9160535117E+04  7.7171022215E+00  5.8729930242E+00  4.2416310997E-01  3.7630244804E-01  7.2713619485E-01
  1.9257525084E+04  7.7739496293E+00  5.8691671908E+00  4.3064355133E-01  3.8151590172E-01  7.2884863654E-01
  1.9354515050E+04  7.8311164438E+00  5.8654380257E+00  4.3718956418E-01  3.8676890343E-01  7.3054677118E-01
  1.9451505017E+04  7.8885169175E+00  5.8617699871E+00  4.4380147652E-01  3.9206104339E-01  7.3223067948E-01
  1.9548494983E+04  7.9460494838E+00  5.8581224695E+00  4.5047961628E-01  3.9739181803E-01  7.3390043278E-01
  1.9645484950E+04  8.0037782852E+00  5.8545205193E+00  4.5722431142E-01  4.0276141749E-01  7.3555609389E-01
  1.9742474916E+04  8.0618663413E+00  5.8510268244E+00  4.6403588982E-01  4.0817048656E-01  7.3719772757E-01
  1.9839464883E+04  8.1200882028E+00  5.8475523207E+00  4.7091467936E-01  4.1361795457E-01  7.3882540091E-01
  1.9936454849E+04  8.1784435215E+00  5.8440968098E+00  4.7786100789E-01  4.1910371925E-01  7.4043918317E-01
  2.0033444816E+04  8.2371462876E+00  5.8407423919E+00  4.8489009174E-01  4.2464009788E-01  7.4203914568E-01
  2.0130434783E+04  8.2960618644E+00  5.8374358161E+00  4.9201638025E-01  4.3023708428E-01  7.4362536179E-01
  2.0227424749E+04  8.3551126139E+00  5.8341469919E+00  4.9921227393E-01  4.3587271969E-01  7.4519790669E-01
  2.0324414716E+04  8.4143529447E+00  5.8308962960E+00  5.0647811235E-01  4.4154715806E-01  7.4675685736E-01
  2.0421404682E+04  8.4739689074E+00  5.8277525385E+00  5.1381423510E-01  4.4726122167E-01  7.4830229247E-01
  2.0518394649E+04  8.5337217773E+00  5.8246253596E+00  5.2122098177E-01  4.5301363769E-01  7.4983429226E-01
  2.0615384615E+04  8.5936112193E+00  5.8215145942E+00  5.2869869197E-01  4.5880428199E-01  7.5135293849E-01
  2.0712374582E+04  8.6538092283E+00  5.8184826690E+00  5.3624770528E-01  4.6463392286E-01  7.5285831430E-01
  2.0809364548E+04  8.7142716959E+00  5.8155122451E+00  5.4386836134E-01  4.7050223762E-01  7.5435050417E-01
  2.0906354515E+04  8.7748725022E+00  5.8125571398E+00  5.5156099974E-01  4.7640844843E-01  7.5582959381E-01
  2.1003344482E+04  8.8356113198E+00  5.8096172034E+00  5.5932596012E-01  4.8235241847E-01  7.5729566966E-01
  2.1100334448E+04  8.8967623445E+00  5.8067887868E+00  5.6716358210E-01  4.8833551712E-01  7.5874881189E-01
  2.1197324415E+04  8.9580819971E+00  5.8039847439E+00  5.7507420531E-01  4.9435630849E-01  7.6018909663E-01
  2.1294314381E+04  9.0195414593E+00  5.8011948467E+00  5.8305816939E-01  5.0041449233E-01  7.6161660152E-01
  2.1391304348E+04  9.0811927491E+00  5.7984369042E+00  5.9111581398E-01  5.0651021926E-01  7.6303140575E-01
  2.1488294314E+04  9.1432387041E+00  5.7957795419E+00  5.9924747873E-01  5.1264452902E-01  7.6443358989E-01
  2.1585284281E+04  9.2054262934E+00  5.7931353565E+00  6.0745350329E-01  5.1881583977E-01  7.6582323589E-01
  2.1682274247E+04  9.2677552017E+00  5.7905042240E+00  6.1573422733E-01  5.2502399373E-01  7.6720042688E-01
  2.1779264214E+04  9.3303406468E+00  5.7879243903E+00  6.2408999049E-01  5.3126952772E-01  7.6856524721E-01
  2.1876254181E+04  9.3932638162E+00  5.7854217884E+00  6.3252113246E-01  5.3755280473E-01  7.6991778228E-01
  2.1973244147E+04  9.4563301610E+00  5.7829313323E+00  6.4102799289E-01  5.4387250103E-01  7.7125811849E-01
  2.2070234114E+04  9.5195393727E+00  5.7804529100E+00  6.4961091148E-01  5.5022844729E-01  7.7258634317E-01
  2.2167224080E+04  9.5830510187E+00  5.7780378652E+00  6.5827022790E-01  5.5662148792E-01  7.7390254451E-01
  2.2264214047E+04  9.6468622463E+00  5.7756841918E+00  6.6700628183E-01  5.6305147095E-01  7.7520681148E-01
  2.2361204013E+04  9.7108182284E+00  5.7733417022E+00  6.7581977192E-01  5.6951750383E-01  7.7649923374E-01
  2.2458193980E+04  9.7749186633E+00  5.7710102948E+00  6.8478016429E-01  5.7606832461E-01  7.7777990117E-01
  2.2555183946E+04  9.8393473845E+00  5.7687473270E+00  6.9381985212E-01  5.8265655071E-01  7.7904889819E-01
  2.2652173913E+04  9.9040575731E+00  5.7665370933E+00  7.0293919009E-01  5.8928172613E-01  7.8030630620E-01
  2.2749163880E+04  9.9689141331E+00  5.7643371444E+00  7.1213853293E-01  5.9594277029E-01  7.8155220755E-01
  2.2846153846E+04  1.0033916769E+01  5.7621473889E+00  7.2141823542E-01  6.0263948980E-01  7.8278668553E-01
  2.2943143813E+04  1.0099252238E+01  5.7600243509E+00  7.3077865236E-01  6.0937300289E-01  7.8400982431E-01
  2.3040133779E+04  1.0164872345E+01  5.7579523852E+00  7.4022013861E-01  6.1614281873E-01  7.8522170881E-01
  2.3137123746E+04  1.0230640478E+01  5.7558898640E+00  7.4974304907E-01  6.2294779001E-01  7.8642242469E-01
  2.3234113712E+04  1.0296556348E+01  5.7538367049E+00  7.5934773868E-01  6.2978771269E-01  7.8761205824E-01
  2.3331103679E+04  1.0362787005E+01  5.7518419740E+00  7.6903456241E-01  6.3666361362E-01  7.8879069635E-01
  2.3428093645E+04  1.0429328038E+01  5.7499033985E+00  7.7880387527E-01  6.4357529728E-01  7.8995842642E-01
  2.3525083612E+04  1.0496018788E+01  5.7479734813E+00  7.8865603234E-01  6.5052138418E-01  7.9111533633E-01
  2.3622073579E+04  1.0562858974E+01  5.7460521482E+00  7.9859138870E-01  6.5750166014E-01  7.9226151434E-01
  2.3719063545E+04  1.0629971994E+01  5.7441745900E+00  8.0861029949E-01  6.6451686352E-01  7.9339704909E-01
  2.3816053512E+04  1.0697445007E+01  5.7423647997E+00  8.1871311990E-01  6.7156749189E-01  7.9452202916E-01
  2.3913043478E+04  1.0765069466E+01  5.7405629314E+00  8.2890020514E-01  6.7865173448E-01  7.9563653879E-01
  2.4010033445E+04  1.0832845094E+01  5.7387689187E+00  8.3917191047E-01  6.8576936756E-01  7.9674065938E-01
  2.4107023411E+04  1.0900826358E+01  5.7369978534E+00  8.4952859118E-01  6.9292060707E-01  7.9783447289E-01
  2.4204013378E+04  1.0969242446E+01  5.7353124965E+00  8.5997060261E-01  7.0010711466E-01  7.9891806180E-01
  2.4301003344E+04  1.1037811744E+01  5.7336343718E+00  8.7049830014E-01  7.0732641286E-01  7.9999150906E-01
  2.4397993311E+04  1.1106533983E+01  5.7319634195E+00  8.8111203917E-01  7.1457826892E-01  8.0105489804E-01
  2.4494983278E+04  1.1175408893E+01  5.7302995808E+00  8.9181217515E-01  7.2186244763E-01  8.0210831244E-01
  2.4591973244E+04  1.1244738338E+01  5.7287235517E+00  9.0259906358E-01  7.2918129019E-01  8.0315183629E-01
  2.4688963211E+04  1.1314263644E+01  5.7271650971E+00  9.1347305998E-01  7.3653241221E-01  8.0418555387E-01
  2.4785953177E+04  1.1383943698E+01  5.7256131743E+00  9.2443451991E-01  7.4391522769E-01  8.0520954965E-01
  2.4882943144E+04  1.1453778236E+01  5.7240677305E+00  9.3548379899E-01  7.5132949315E-01  8.0622390826E-01
  2.4979933110E+04  1.1523948028E+01  5.7225760831E+00  9.4662125284E-01  7.5877658046E-01  8.0722871446E-01
  2.5076923077E+04  1.1594437888E+01  5.7211334014E+00  9.5790186271E-01  7.6629111709E-01  8.0822405302E-01
  2.5173913043E+04  1.1665084318E+01  5.7196966505E+00  9.6928684308E-01  7.7384604410E-01  8.0921000614E-01
  2.5270903010E+04  1.1735887058E+01  5.7182657832E+00  9.8076245338E-01  7.8143204223E-01  8.1018665244E-01
  2.5367892977E+04  1.1806876803E+01  5.7168490848E+00  9.9232906170E-01  7.8904915181E-01  8.1115407058E-01
  2.5464882943E+04  1.1878321936E+01  5.7155182228E+00  1.0039870362E+00  7.9669972849E-01  8.1211233948E-01
  2.5561872910E+04  1.1949925327E+01  5.7141927283E+00  1.0157367451E+00  8.0438069437E-01  8.1306153825E-01
  2.5658862876E+04  1.2021686724E+01  5.7128725592E+00  1.0275785567E+00  8.1209178763E-01  8.1400174621E-01
  2.5755852843E+04  1.2093605877E+01  5.7115576742E+00  1.0395128393E+00  8.1983274436E-01  8.1493304276E-01
  2.5852842809E+04  1.2165862621E+01  5.7102989011E+00  1.0515399614E+00  8.2760520057E-01  8.1585550741E-01
  2.5949832776E+04  1.2238405345E+01  5.7090808432E+00  1.0636602914E+00  8.3540839963E-01  8.1676921970E-01
  2.6046822742E+04  1.2311107575E+01  5.7078675878E+00  1.0758741979E+00  8.4324075367E-01  8.1767425918E-01
  2.6143812709E+04  1.2383969069E+01  5.7066590982E+00  1.0881820496E+00  8.5110199217E-01  8.1857070537E-01
  2.6240802676E+04  1.2456990178E+01  5.7054555177E+00  1.1005842150E+00  8.5899184963E-01  8.1945863769E-01
  2.6337792642E+04  1.2530453394E+01  5.7043412678E+00  1.1130810629E+00  8.6691335610E-01  8.2033813434E-01
  2.6434782609E+04  1.2604077424E+01  5.7032313300E+00  1.1256729622E+00  8.7486301887E-01  8.2120926890E-01
  2.6531772575E+04  1.2677862030E+01  5.7021256719E+00  1.1383602817E+00  8.8284056140E-01  8.2207211645E-01
  2.6628762542E+04  1.2751806971E+01  5.7010242615E+00  1.1511433903E+00  8.9084570542E-01  8.2292675236E-01
  2.6725752508E+04  1.2825999738E+01  5.6999552076E+00  1.1640226570E+00  8.9887930172E-01  8.2377325195E-01
  2.6822742475E+04  1.2900525369E+01  5.6989451678E+00  1.1769984509E+00  9.0694221292E-01  8.2461169050E-01
  2.6919732441E+04  1.2975212691E+01  5.6979389516E+00  1.1900711411E+00  9.1503197589E-01  8.2544214299E-01
  2.7016722408E+04  1.3050061472E+01  5.6969365310E+00  1.2032410969E+00  9.2314830713E-01  8.2626468283E-01
  2.7113712375E+04  1.3125071477E+01  5.6959378780E+00  1.2165086873E+00  9.3129092166E-01  8.2707938316E-01
  2.7210702341E+04  1.3200382229E+01  5.6949913481E+00  1.2298742818E+00  9.3946155751E-01  8.2788624818E-01
  2.7307692308E+04  1.3275950735E+01  5.6940813472E+00  1.2433382497E+00  9.4765936102E-01  8.2868570363E-01
  2.7404682274E+04  1.3351681624E+01  5.6931747173E+00  1.2569010903E+00  9.5588275446E-01  8.2947982616E-01
  2.7501672241E+04  1.3427574669E+01  5.6922714341E+00  1.2705635986E+00  9.6413169239E-01  8.3026946860E-01
  2.7598662207E+04  1.3503629642E+01  5.6913714734E+00  1.2843256010E+00  9.7240556848E-01  8.3105465944E-01
  2.7695652174E+04  1.3580008023E+01  5.6905360705E+00  1.2981874673E+00  9.8070675354E-01  8.3183543055E-01
  2.7792642140E+04  1.3656598182E+01  5.6897221831E+00  1.3121495672E+00  9.8903317924E-01  8.3261181386E-01
  2.7889632107E+04  1.3733351229E+01  5.6889112469E+00  1.3262122705E+00  9.9738375863E-01  8.3338384098E-01
  2.7986622074E+04  1.3810266941E+01  5.6881032409E+00  1.3403759472E+00  1.0057581973E+00  8.3415154325E-01
  2.8083612040E+04  1.3887345099E+01  5.6872981444E+00  1.3546409672E+00  1.0141561997E+00  8.3491495171E-01
  2.8180602007E+04  1.3964744547E+01  5.6865630354E+00  1.3690077005E+00  1.0225804920E+00  8.3567409711E-01
  2.8277591973E+04  1.4042333482E+01  5.6858415631E+00  1.3834765171E+00  1.0310283385E+00  8.3642900992E-01
  2.8374581940E+04  1.4120085622E+01  5.6851226523E+00  1.3980477872E+00  1.0394989512E+00  8.3717972032E-01
  2.8471571906E+04  1.4198000751E+01  5.6844062851E+00  1.4127218810E+00  1.0479920318E+00  8.3792625822E-01
  2.8568561873E+04  1.4276078654E+01  5.6836924439E+00  1.4274991687E+00  1.0565072809E+00  8.3866865326E-01
  2.8665551839E+04  1.4354456882E+01  5.6830473219E+00  1.4423800207E+00  1.0650474823E+00  8.3940693479E-01
  2.8762541806E+04  1.4433020096E+01  5.6824147764E+00  1.4573648072E+00  1.0736098205E+00  8.4014113192E-01
  2.8859531773E+04  1.4511746645E+01  5.6817844303E+00  1.4724538987E+00  1.0821935195E+00  8.4087127348E-01
  2.8956521739E+04  1.4590636317E+01  5.6811562687E+00  1.4876476657E+00  1.0907982778E+00  8.4159738805E-01
  2.9053511706E+04  1.4669688904E+01  5.6805302767E+00  1.5029464788E+00  1.0994237934E+00  8.4231950392E-01
  2.9150501672E+04  1.4749008391E+01  5.6799653266E+00  1.5183507084E+00  1.1080725929E+00  8.4303764918E-01
  2.9247491639E+04  1.4828519800E+01  5.6794184139E+00  1.5338607253E+00  1.1167424024E+00  8.4375185162E-01
  2.9344481605E+04  1.4908194486E+01  5.6788733642E+00  1.5494769001E+00  1.1254321539E+00  8.4446213881E-01
  2.9441471572E+04  1.4988032242E+01  5.6783301651E+00  1.5651996037E+00  1.1341415440E+00  8.4516853806E-01
  2.9538461538E+04  1.5068032864E+01  5.6777888042E+00  1.5810292068E+00  1.1428702688E+00  8.4587107644E-01
  2.9635451505E+04  1.5148261374E+01  5.6772946709E+00  1.5969660803E+00  1.1516202693E+00  8.4656978079E-01
  2.9732441472E+04  1.5228693383E+01  5.6768302773E+00  1.6130105952E+00  1.1603904618E+00  8.4726467847E-01
  2.9829431438E+04  1.5309288421E+01  5.6763674339E+00  1.6291631225E+00  1.1691791690E+00  8.4795579780E-01
  2.9926421405E+04  1.5390046288E+01  5.6759061305E+00  1.6454240331E+00  1.1779860863E+00  8.4864316645E-01
  3.0023411371E+04  1.5470966783E+01  5.6754463572E+00  1.6618252086E+00  1.1868269808E+00  8.4932681180E-01
  3.0120401338E+04  1.5552082057E+01  5.6750141033E+00  1.6784358966E+00  1.1957376143E+00  8.5000676095E-01
  3.0217391304E+04  1.5633417303E+01  5.6746292465E+00  1.6951582746E+00  1.2046684401E+00  8.5068304075E-01
  3.0314381271E+04  1.5714915228E+01  5.6742456491E+00  1.7119927301E+00  1.2136167937E+00  8.5135567774E-01
  3.0411371237E+04  1.5796575637E+01  5.6738633028E+00  1.7289396510E+00  1.2225823637E+00  8.5202469824E-01
  3.0508361204E+04  1.5878398333E+01  5.6734821996E+00  1.7459994250E+00  1.2315648386E+00  8.5269012829E-01
  3.0605351171E+04  1.5960384517E+01  5.6731032935E+00  1.7631724398E+00  1.2405639611E+00  8.5335199366E-01
  3.0702341137E+04  1.6042633826E+01  5.6727950617E+00  1.7804590836E+00  1.2495833504E+00  8.5401031990E-01
  3.0799331104E+04  1.6125045568E+01  5.6724878188E+00  1.7978597442E+00  1.2586188075E+00  8.5466513227E-01
  3.0896321070E+04  1.6207619551E+01  5.6721815584E+00  1.8153748098E+00  1.2676700217E+00  8.5531645582E-01
  3.0993311037E+04  1.6290355585E+01  5.6718762744E+00  1.8330046686E+00  1.2767366821E+00  8.5596431533E-01
  3.1090301003E+04  1.6373253478E+01  5.6715719606E+00  1.8507497088E+00  1.2858184779E+00  8.5660873535E-01
  3.1187290970E+04  1.6456381876E+01  5.6713081893E+00  1.8686103190E+00  1.2949175880E+00  8.5724974020E-01
