#[MATERIAL DEFINITION FOR MC-GPU: interaction mean free path and sampling data from PENELOPE 2006]
#[MATERIAL NAME]
# MetallImplants_30                                             
#[NOMINAL DENSITY (g/cm^3)]
#   2.48210000
#[NUMBER OF DATA VALUES]
#   1495
#[MEAN FREE PATHS (cm) (ie, average distance between interactions)]
#[Energy (eV)     | Rayleigh        | Compton         | Photoelectric   | TOTAL (+pair prod) (cm) | Rayleigh: max cumul prob F^2]
  5.0000000000E+03  2.2529657034E-01  6.1770443343E+00  5.9416205446E-04  5.9254237966E-04  2.0263707619E-01
  5.0969899666E+03  2.2889988133E-01  6.1025483929E+00  6.2067492606E-04  6.1893370225E-04  2.0704492358E-01
  5.1939799331E+03  2.3252490784E-01  6.0308059431E+00  6.4969003649E-04  6.4781022403E-04  2.1142820418E-01
  5.2909698997E+03  2.3617140742E-01  5.9616759908E+00  6.8035156929E-04  6.7832008597E-04  2.1578705878E-01
  5.3879598662E+03  2.3983912215E-01  5.8950267441E+00  7.1238151269E-04  7.1018626174E-04  2.2012168304E-01
  5.4849498328E+03  2.4352777989E-01  5.8307348434E+00  7.4530744255E-04  7.4293874163E-04  2.2443223301E-01
  5.5819397993E+03  2.4723709545E-01  5.7686846683E+00  7.7913848715E-04  7.7658627885E-04  2.2871884669E-01
  5.6789297659E+03  2.5096677178E-01  5.7087677123E+00  8.1388254986E-04  8.1113640183E-04  2.3298170951E-01
  5.7759197324E+03  2.5471650101E-01  5.6508820171E+00  8.4996652692E-04  8.4701271830E-04  2.3722105157E-01
  5.8729096990E+03  2.5848596553E-01  5.5949316604E+00  8.8754749829E-04  8.8437059748E-04  2.4143710264E-01
  5.9698996656E+03  2.6227483910E-01  5.5408262796E+00  9.2613352076E-04  9.2272101815E-04  2.4563003703E-01
  6.0668896321E+03  2.6608279755E-01  5.4884800464E+00  9.6607153674E-04  9.6240790412E-04  2.4980005316E-01
  6.1638795987E+03  2.6990953639E-01  5.4378103275E+00  1.0072141325E-03  1.0032843708E-03  2.5394738319E-01
  6.2608695652E+03  2.7375476921E-01  5.3887376702E+00  1.0494253329E-03  1.0452150035E-03  2.5807230736E-01
  6.3578595318E+03  2.7761820321E-01  5.3411870988E+00  1.0927156932E-03  1.0882098292E-03  2.6217501093E-01
  6.4548494983E+03  2.8150121971E-01  5.2951116408E+00  1.1370957084E-03  1.1322788320E-03  2.6625563503E-01
  6.5518394649E+03  2.8540395663E-01  5.2504501231E+00  1.1825758143E-03  1.1774319097E-03  2.7031434845E-01
  6.6488294314E+03  2.8932439796E-01  5.2071152335E+00  1.2291663886E-03  1.2236788531E-03  2.7435134548E-01
  6.7458193980E+03  2.9326221572E-01  5.1650472389E+00  1.2768777526E-03  1.2710294119E-03  2.7836684386E-01
  6.8428093645E+03  2.9721707623E-01  5.1241896218E+00  1.3257201718E-03  1.3194932690E-03  2.8236108304E-01
  6.9397993311E+03  3.0118864099E-01  5.0844888585E+00  1.3757038569E-03  1.3690800411E-03  2.8633431269E-01
  7.0367892977E+03  3.0517676033E-01  5.0458967581E+00  1.4269862035E-03  1.4199450726E-03  2.9028668671E-01
  7.1337792642E+03  3.0918694203E-01  5.0084401359E+00  1.4796869182E-03  1.4722063811E-03  2.9421831757E-01
  7.2307692308E+03  3.1321334672E-01  4.9719978396E+00  1.5335826895E-03  1.5256421314E-03  2.9812933785E-01
  7.3277591973E+03  3.1725569088E-01  4.9365255791E+00  1.5886840413E-03  1.5802621845E-03  3.0201989772E-01
  7.4247491639E+03  3.2131367893E-01  4.9019813723E+00  1.6450014483E-03  1.6360763391E-03  3.0589016362E-01
  7.5217391304E+03  3.2539051224E-01  4.8683669803E+00  1.7025453362E-03  1.6930944324E-03  3.0974031704E-01
  7.6187290970E+03  3.2948720011E-01  4.8356576086E+00  1.7613260835E-03  1.7513261935E-03  3.1357053789E-01
  7.7157190635E+03  3.3359907565E-01  4.8037647642E+00  1.8213540215E-03  1.8107811226E-03  3.1738092849E-01
  7.8127090301E+03  3.3772580006E-01  4.7726542017E+00  1.8826394358E-03  1.8714687786E-03  3.2117157765E-01
  7.9096989967E+03  3.4187266664E-01  4.7423552749E+00  1.9451925665E-03  1.9333988521E-03  3.2494258827E-01
  8.0066889632E+03  3.4603804480E-01  4.7128198448E+00  2.0091295652E-03  1.9966854111E-03  3.2869407600E-01
  8.1036789298E+03  3.5021772433E-01  4.6839751906E+00  2.0758287173E-03  2.0626885072E-03  3.3242616831E-01
  8.2006688963E+03  3.5441314259E-01  4.6558118496E+00  2.1439089379E-03  2.1300430811E-03  3.3613899959E-01
  8.2976588629E+03  3.5863163627E-01  4.6283799051E+00  2.2133819816E-03  2.1987603096E-03  3.3983265750E-01
  8.3946488294E+03  3.6286391004E-01  4.6015595716E+00  2.2842595629E-03  2.2688506726E-03  3.4350720236E-01
  8.4916387960E+03  3.6710996041E-01  4.5753301883E+00  2.3565533572E-03  2.3403249369E-03  3.4716270516E-01
  8.5886287625E+03  3.7138124437E-01  4.5497814167E+00  2.4302750013E-03  2.4131943299E-03  3.5079924718E-01
  8.6856187291E+03  3.7566570092E-01  4.5247750506E+00  2.5054360934E-03  2.4874690088E-03  3.5441691921E-01
  8.7826086957E+03  3.7996441661E-01  4.5003036437E+00  2.5820481944E-03  2.5631596309E-03  3.5801583287E-01
  8.8795986622E+03  3.8428794077E-01  4.4764450278E+00  2.6601228281E-03  2.6402772853E-03  3.6159607777E-01
  8.9765886288E+03  3.8862393281E-01  4.4530679947E+00  2.7396714816E-03  2.7188318936E-03  3.6515766717E-01
  9.0735785953E+03  3.9297725252E-01  4.4302000643E+00  2.8209098676E-03  2.7990352707E-03  3.6870062064E-01
  9.1705685619E+03  3.9735228415E-01  4.4078616068E+00  2.9037214201E-03  2.8807719382E-03  3.7222496710E-01
  9.2675585284E+03  4.0173901969E-01  4.3859509932E+00  2.9880542985E-03  2.9639894369E-03  3.7573074425E-01
  9.3645484950E+03  4.0614900588E-01  4.3645499988E+00  3.0739200906E-03  3.0486989765E-03  3.7921799806E-01
  9.4615384615E+03  4.1057479066E-01  4.3435811161E+00  3.1613303502E-03  3.1349106279E-03  3.8268678219E-01
  9.5585284281E+03  4.1501516838E-01  4.3230218624E+00  3.2502965978E-03  3.2226347537E-03  3.8613715755E-01
  9.6555183946E+03  4.1948023114E-01  4.3029372896E+00  3.3408303211E-03  3.3118824125E-03  3.8956919183E-01
  9.7525083612E+03  4.2395578365E-01  4.2832043580E+00  3.4329429755E-03  3.4026630261E-03  3.9298295885E-01
  9.8494983278E+03  4.2845630382E-01  4.2639207255E+00  3.5266459842E-03  3.4949878888E-03  3.9637849693E-01
  9.9464882943E+03  4.3297092931E-01  4.2449923708E+00  3.6219507386E-03  3.5888665108E-03  3.9975579425E-01
  1.0043478261E+04  4.3750391540E-01  4.2264398227E+00  3.7198391972E-03  3.6852620459E-03  4.0311484894E-01
  1.0140468227E+04  4.4205776588E-01  4.2082688371E+00  3.8206152370E-03  3.7844709688E-03  4.0645566651E-01
  1.0237458194E+04  4.4662405060E-01  4.1904102190E+00  3.9231230477E-03  3.8853567432E-03  4.0977825941E-01
  1.0334448161E+04  4.5121737412E-01  4.1729534116E+00  4.0273755583E-03  3.9879321526E-03  4.1308264670E-01
  1.0431438127E+04  4.5581922825E-01  4.1557635266E+00  4.1333856716E-03  4.0922072132E-03  4.1636885363E-01
  1.0528428094E+04  4.6045092096E-01  4.1389719686E+00  4.2411662635E-03  4.1981952652E-03  4.1963691137E-01
  1.0625418060E+04  4.6509200968E-01  4.1224358358E+00  4.3507301841E-03  4.3059059762E-03  4.2288685661E-01
  1.0722408027E+04  4.6975951621E-01  4.1062553262E+00  4.4620902574E-03  4.4153523136E-03  4.2611872759E-01
  1.0819397993E+04  4.7443997597E-01  4.0903367595E+00  4.5752592819E-03  4.5265443953E-03  4.2933252619E-01
  1.0916387960E+04  4.7914420525E-01  4.0747387959E+00  4.6902500309E-03  4.6394945996E-03  4.3252824121E-01
  1.1013377926E+04  4.8386411187E-01  4.0594038703E+00  4.8070752527E-03  4.7542134128E-03  4.3570586852E-01
  1.1110367893E+04  4.8860596845E-01  4.0443618113E+00  4.9257476707E-03  4.8707127254E-03  4.3886540999E-01
  1.1207357860E+04  4.9336533617E-01  4.0295786791E+00  5.0462799840E-03  4.9890032731E-03  4.4200687318E-01
  1.1304347826E+04  4.9814572045E-01  4.0150675941E+00  5.1686848674E-03  5.1090965991E-03  4.4513027106E-01
  1.1401337793E+04  5.0294450098E-01  4.0008063188E+00  5.2929749717E-03  5.2310035277E-03  4.4823562176E-01
  1.1498327759E+04  5.0776430937E-01  3.9868028508E+00  5.4191629241E-03  5.3547354404E-03  4.5132294829E-01
  1.1595317726E+04  5.1260239085E-01  3.9730352568E+00  5.5472613282E-03  5.4803030402E-03  4.5439227359E-01
  1.1692307692E+04  5.1746251595E-01  3.9595174992E+00  5.6772827646E-03  5.6077177841E-03  4.5744359471E-01
  1.1789297659E+04  5.2233972182E-01  3.9462170357E+00  5.8092397908E-03  5.7369899900E-03  4.6047690460E-01
  1.1886287625E+04  5.2724105253E-01  3.9331644201E+00  5.9431449413E-03  5.8681314847E-03  4.6349220181E-01
  1.1983277592E+04  5.3215714046E-01  3.9203060373E+00  6.0790107286E-03  6.0011518760E-03  4.6648949014E-01
  1.2080267559E+04  5.3710056203E-01  3.9076992317E+00  6.2168496424E-03  6.1360637192E-03  4.6946877833E-01
  1.2177257525E+04  5.4205522268E-01  3.8952592684E+00  6.3566741506E-03  6.2728755191E-03  4.7243007988E-01
  1.2274247492E+04  5.4704161682E-01  3.8830800848E+00  6.4984966991E-03  6.4116009899E-03  4.7537341284E-01
  1.2371237458E+04  5.5203447267E-01  3.8710361656E+00  6.6423297124E-03  6.5522470647E-03  4.7829879830E-01
  1.2468227425E+04  5.5706471847E-01  3.8592674757E+00  6.7881855931E-03  6.6948291267E-03  4.8120624268E-01
  1.2565217391E+04  5.6210128947E-01  3.8476253450E+00  6.9378956235E-03  6.8411214718E-03  4.8409574436E-01
  1.2662207358E+04  5.6717032902E-01  3.8362240821E+00  7.0906203202E-03  6.9903088235E-03  4.8696730660E-01
  1.2759197324E+04  5.7225191361E-01  3.8249697827E+00  7.2455030066E-03  7.1415530512E-03  4.8982093741E-01
  1.2856187291E+04  5.7735889748E-01  3.8139146113E+00  7.4025574232E-03  7.2948680412E-03  4.9265664932E-01
  1.2953177258E+04  5.8248646595E-01  3.8030333070E+00  7.5617972924E-03  7.4502646892E-03  4.9547445925E-01
  1.3050167224E+04  5.8763084386E-01  3.7923056541E+00  7.7232363197E-03  7.6077539520E-03  4.9827438829E-01
  1.3147157191E+04  5.9280536878E-01  3.7817833292E+00  7.8868881929E-03  7.7673499110E-03  5.0105645851E-01
  1.3244147157E+04  5.9798692326E-01  3.7713672205E+00  8.0527665831E-03  7.9290597922E-03  5.0382067886E-01
  1.3341137124E+04  6.0320895982E-01  3.7611889469E+00  8.2208851442E-03  8.0929015676E-03  5.0656705728E-01
  1.3438127090E+04  6.0843869653E-01  3.7511132282E+00  8.3912575133E-03  8.2588803479E-03  5.0929560621E-01
  1.3535117057E+04  6.1369748948E-01  3.7412208289E+00  8.5638973108E-03  8.4270118324E-03  5.1200634240E-01
  1.3632107023E+04  6.1897638093E-01  3.7314732560E+00  8.7388181408E-03  8.5973056410E-03  5.1469928673E-01
  1.3729096990E+04  6.2427111879E-01  3.7218511098E+00  8.9160335908E-03  8.7697721977E-03  5.1737446403E-01
  1.3826086957E+04  6.2960013558E-01  3.7124200820E+00  9.0955572321E-03  8.9444268629E-03  5.2003190591E-01
  1.3923076923E+04  6.3493691343E-01  3.7030786301E+00  9.2774026199E-03  9.1212750677E-03  5.2267165162E-01
  1.4020066890E+04  6.4031002788E-01  3.6939278104E+00  9.4615832934E-03  9.3003345203E-03  5.2529371161E-01
  1.4117056856E+04  6.4569816455E-01  3.6848874966E+00  9.6481127758E-03  9.4816115713E-03  5.2789809641E-01
  1.4214046823E+04  6.5110603133E-01  3.6759717857E+00  9.8370045749E-03  9.6651184301E-03  5.3048482094E-01
  1.4311036789E+04  6.5654649659E-01  3.6672224072E+00  1.0028272183E-02  9.8508694070E-03  5.3305390437E-01
  1.4408026756E+04  6.6199521318E-01  3.6585527403E+00  1.0221929076E-02  1.0038869549E-02  5.3560536994E-01
  1.4505016722E+04  6.6748178430E-01  3.6500603779E+00  1.0417988715E-02  1.0229137399E-02  5.3813924480E-01
  1.4602006689E+04  6.7298406904E-01  3.6416680832E+00  1.0616464546E-02  1.0421678329E-02  5.4065555991E-01
  1.4698996656E+04  6.7850380373E-01  3.6333794796E+00  1.0817370001E-02  1.0616503669E-02  5.4315434985E-01
  1.4795986622E+04  6.8406062483E-01  3.6252555443E+00  1.1020718494E-02  1.0813629726E-02  5.4563565270E-01
  1.4892976589E+04  6.8962620234E-01  3.6172026760E+00  1.1226523428E-02  1.1013059599E-02  5.4809950992E-01
  1.4989966555E+04  6.9522455072E-01  3.6092945883E+00  1.1434798187E-02  1.1214810856E-02  5.5054596616E-01
  1.5086956522E+04  7.0084590728E-01  3.6014980375E+00  1.1648552311E-02  1.1421772258E-02  5.5297506921E-01
  1.5183946488E+04  7.0647625690E-01  3.5937681284E+00  1.1865245004E-02  1.1631491763E-02  5.5538686266E-01
  1.5280936455E+04  7.1215348676E-01  3.5862168322E+00  1.2084550393E-02  1.1843665095E-02  5.5778137282E-01
  1.5377926421E+04  7.1784083718E-01  3.5787315411E+00  1.2306483097E-02  1.2058292892E-02  5.6015862789E-01
  1.5474916388E+04  7.2354837727E-01  3.5713403150E+00  1.2531057723E-02  1.2275389868E-02  5.6251865991E-01
  1.5571906355E+04  7.2929365181E-01  3.5640914187E+00  1.2758288866E-02  1.2494973417E-02  5.6486150466E-01
  1.5668896321E+04  7.3504844776E-01  3.5569021092E+00  1.2988191110E-02  1.2717046020E-02  5.6718720149E-01
  1.5765886288E+04  7.4083402307E-01  3.5498301951E+00  1.3220779030E-02  1.2941626267E-02  5.6949579318E-01
  1.5862876254E+04  7.4664795341E-01  3.5428666341E+00  1.3456067186E-02  1.3168725032E-02  5.7178732581E-01
  1.5959866221E+04  7.5247165351E-01  3.5359590563E+00  1.3694070129E-02  1.3398347332E-02  5.7406184865E-01
  1.6056856187E+04  7.5833514840E-01  3.5291859733E+00  1.3934802399E-02  1.3630515237E-02  5.7631941402E-01
  1.6153846154E+04  7.6421919610E-01  3.5224941887E+00  1.4178278526E-02  1.3865233427E-02  5.7856007717E-01
  1.6250836120E+04  7.7011326616E-01  3.5158550374E+00  1.4424513027E-02  1.4102509266E-02  5.8078389615E-01
  1.6347826087E+04  7.7605444469E-01  3.5093616178E+00  1.4673520409E-02  1.4342368042E-02  5.8299093095E-01
  1.6444816054E+04  7.8201007838E-01  3.5029289381E+00  1.4925315169E-02  1.4584808816E-02  5.8518123140E-01
  1.6541806020E+04  7.8797638196E-01  3.4965467290E+00  1.5179911793E-02  1.4829841144E-02  5.8735484107E-01
  1.6638795987E+04  7.9399449370E-01  3.4903140585E+00  1.5437324756E-02  1.5077492651E-02  5.8951180681E-01
  1.6735785953E+04  8.0002318902E-01  3.4841286269E+00  1.5697568523E-02  1.5327758121E-02  5.9165217874E-01
  1.6832775920E+04  8.0606537361E-01  3.4779967208E+00  1.5960657549E-02  1.5580649615E-02  5.9377601011E-01
  1.6929765886E+04  8.1215776379E-01  3.4720029483E+00  1.6226606277E-02  1.5836193725E-02  5.9588335717E-01
  1.7026755853E+04  8.1826100332E-01  3.4660536569E+00  1.6495429142E-02  1.6094384953E-02  5.9797427905E-01
  1.7123745819E+04  8.2437845255E-01  3.4601559240E+00  1.6767140567E-02  1.6355235497E-02  6.0004883764E-01
  1.7220735786E+04  8.3054660587E-01  3.4543904474E+00  1.7041754964E-02  1.6618772585E-02  6.0210709747E-01
  1.7317725753E+04  8.3672587908E-01  3.4486668778E+00  1.7319286738E-02  1.6884989585E-02  6.0414912561E-01
  1.7414715719E+04  8.4291784056E-01  3.4429881603E+00  1.7599750282E-02  1.7153897798E-02  6.0617499155E-01
  1.7511705686E+04  8.4916322048E-01  3.4374410156E+00  1.7883508610E-02  1.7425858193E-02  6.0818476433E-01
  1.7608695652E+04  8.5541999544E-01  3.4319333729E+00  1.8172810518E-02  1.7702981804E-02  6.1017850266E-01
  1.7705685619E+04  8.6168812330E-01  3.4264647356E+00  1.8465164714E-02  1.7982898580E-02  6.1215626457E-01
  1.7802675585E+04  8.6800936095E-01  3.4211211106E+00  1.8760586417E-02  1.8265640535E-02  6.1411811102E-01
  1.7899665552E+04  8.7434482200E-01  3.4158200653E+00  1.9059090837E-02  1.8551199925E-02  6.1606410570E-01
  1.7996655518E+04  8.8069191349E-01  3.4105558140E+00  1.9360693178E-02  1.8839586445E-02  6.1799431495E-01
  1.8093645485E+04  8.8708599449E-01  3.4053989056E+00  1.9665408634E-02  1.9130829698E-02  6.1990880760E-01
  1.8190635452E+04  8.9350115047E-01  3.4002956093E+00  1.9973252392E-02  1.9424927588E-02  6.2180765490E-01
  1.8287625418E+04  8.9992821512E-01  3.3952270377E+00  2.0284239631E-02  1.9721886188E-02  6.2369093041E-01
  1.8384615385E+04  9.0639365667E-01  3.3902443228E+00  2.0598385524E-02  2.0021730988E-02  6.2555870983E-01
  1.8481605351E+04  9.1288950302E-01  3.3853304406E+00  2.0915705235E-02  2.0324468956E-02  6.2741107097E-01
  1.8578595318E+04  9.1939753706E-01  3.3804493452E+00  2.1236213919E-02  2.0630100828E-02  6.2924809069E-01
  1.8675585284E+04  9.2593277190E-01  3.3756290408E+00  2.1559926727E-02  2.0938646012E-02  6.3106983709E-01
  1.8772575251E+04  9.3251029278E-01  3.3708967147E+00  2.1886858800E-02  2.1250124482E-02  6.3287637833E-01
  1.8869565217E+04  9.3910028122E-01  3.3661953588E+00  2.2217025272E-02  2.1564529666E-02  6.3466778501E-01
  1.8966555184E+04  9.4570365721E-01  3.3615263704E+00  2.2550441270E-02  2.1881872625E-02  6.3644413009E-01
  1.9063545151E+04  9.5236382549E-01  3.3569681844E+00  2.2887121913E-02  2.2202190864E-02  6.3820548874E-01
  1.9160535117E+04  9.5903674213E-01  3.3524392643E+00  2.3227082314E-02  2.2525468235E-02  6.3995193825E-01
  1.9257525084E+04  9.6572236681E-01  3.3479392755E+00  2.3570337577E-02  2.2851715067E-02  6.4168355793E-01
  1.9354515050E+04  9.7245029886E-01  3.3435200874E+00  2.3916902800E-02  2.3180960985E-02  6.4340042897E-01
  1.9451505017E+04  9.7920710622E-01  3.3391567019E+00  2.4266793074E-02  2.3513208244E-02  6.4510263439E-01
  1.9548494983E+04  9.8597690375E-01  3.3348206711E+00  2.4620023481E-02  2.3848456846E-02  6.4679025811E-01
  1.9645484950E+04  9.9276980191E-01  3.3305290436E+00  2.4976609098E-02  2.4186723862E-02  6.4846337736E-01
  1.9742474916E+04  9.9961145115E-01  3.3263246653E+00  2.5336564995E-02  2.4528037524E-02  6.5012206656E-01
  1.9839464883E+04  1.0064663738E+00  3.3221461602E+00  2.5699906232E-02  2.4872384018E-02  6.5176640219E-01
  1.9936454849E+04  1.0133345304E+00  3.3179932437E+00  2.6066647865E-02  2.5219773329E-02  6.5339646273E-01
  2.0033444816E+04  1.0202497708E+00  3.3139214204E+00  2.6437550818E-02  2.5570937769E-02  6.5501232858E-01
  2.0130434783E+04  1.0271907946E+00  3.3098943632E+00  2.6813335524E-02  2.5926530898E-02  6.5661408195E-01
  2.0227424749E+04  1.0341453375E+00  3.3058915206E+00  2.7192616869E-02  2.6285243054E-02  6.5820180674E-01
  2.0324414716E+04  1.0411220281E+00  3.3019264391E+00  2.7575410388E-02  2.6647090968E-02  6.5977558846E-01
  2.0421404682E+04  1.0481503165E+00  3.2980451427E+00  2.7961731612E-02  2.7012107739E-02  6.6133551415E-01
  2.0518394649E+04  1.0551924121E+00  3.2941867667E+00  2.8351596064E-02  2.7380275205E-02  6.6288167081E-01
  2.0615384615E+04  1.0622482765E+00  3.2903510682E+00  2.8745019261E-02  2.7751603370E-02  6.6441413875E-01
  2.0712374582E+04  1.0693451434E+00  3.2865794894E+00  2.9142016718E-02  2.8126124096E-02  6.6593299724E-01
  2.0809364548E+04  1.0764760229E+00  3.2828602842E+00  2.9542603940E-02  2.8503842556E-02  6.6743832728E-01
  2.0906354515E+04  1.0836209636E+00  3.2791625530E+00  2.9946796429E-02  2.8884752831E-02  6.6893021160E-01
  2.1003344482E+04  1.0907799279E+00  3.2754860730E+00  3.0354609680E-02  2.9268864712E-02  6.7040873448E-01
  2.1100334448E+04  1.0979963097E+00  3.2718943428E+00  3.0766059184E-02  2.9656224851E-02  6.7187398170E-01
  2.1197324415E+04  1.1052315587E+00  3.2683296180E+00  3.1181160424E-02  3.0046811295E-02  6.7332604043E-01
  2.1294314381E+04  1.1124811280E+00  3.2647850239E+00  3.1599928880E-02  3.0440629904E-02  6.7476499912E-01
  2.1391304348E+04  1.1197532612E+00  3.2612721118E+00  3.2022380025E-02  3.0837697593E-02  6.7619094989E-01
  2.1488294314E+04  1.1270800471E+00  3.2578356777E+00  3.2448529327E-02  3.1238053029E-02  6.7760399343E-01
  2.1585284281E+04  1.1344214539E+00  3.2544183161E+00  3.2878392248E-02  3.1641670782E-02  6.7900420845E-01
  2.1682274247E+04  1.1417774449E+00  3.2510198361E+00  3.3311984246E-02  3.2048560283E-02  6.8039167171E-01
  2.1779264214E+04  1.1491662587E+00  3.2476649745E+00  3.3749320772E-02  3.2458747968E-02  6.8176646173E-01
  2.1876254181E+04  1.1566007317E+00  3.2443704174E+00  3.4190417273E-02  3.2872256031E-02  6.8312865867E-01
  2.1973244147E+04  1.1640500942E+00  3.2410937547E+00  3.4635289189E-02  3.3289065429E-02  6.8447834424E-01
  2.2070234114E+04  1.1715143098E+00  3.2378348109E+00  3.5083951956E-02  3.3709185377E-02  6.8581560161E-01
  2.2167224080E+04  1.1790186280E+00  3.2346265591E+00  3.5536421005E-02  3.4132649912E-02  6.8714051529E-01
  2.2264214047E+04  1.1865625902E+00  3.2314675509E+00  3.5992711760E-02  3.4559468695E-02  6.8845317106E-01
  2.2361204013E+04  1.1941217152E+00  3.2283253394E+00  3.6452868055E-02  3.4989653229E-02  6.8975365588E-01
  2.2458193980E+04  1.2016959676E+00  3.2251997633E+00  3.6922374566E-02  3.5428248060E-02  6.9104205779E-01
  2.2555183946E+04  1.2093144308E+00  3.2221273680E+00  3.7395865804E-02  3.5870331110E-02  6.9231846583E-01
  2.2652173913E+04  1.2169696930E+00  3.2190979706E+00  3.7873358234E-02  3.6315905423E-02  6.9358296998E-01
  2.2749163880E+04  1.2246403967E+00  3.2160843465E+00  3.8354868319E-02  3.6764958754E-02  6.9483566104E-01
  2.2846153846E+04  1.2323265070E+00  3.2130863468E+00  3.8840412518E-02  3.7217500592E-02  6.9607663059E-01
  2.2943143813E+04  1.2400575672E+00  3.2101396912E+00  3.9330007289E-02  3.7673572600E-02  6.9730597090E-01
  2.3040133779E+04  1.2478259489E+00  3.2072343264E+00  3.9823669083E-02  3.8133177005E-02  6.9852377487E-01
  2.3137123746E+04  1.2556100560E+00  3.2043437793E+00  4.0321414352E-02  3.8596299934E-02  6.9973013357E-01
  2.3234113712E+04  1.2634098541E+00  3.2014679128E+00  4.0823259543E-02  3.9062950648E-02  7.0092512685E-01
  2.3331103679E+04  1.2712517696E+00  3.1986374703E+00  4.1329221101E-02  3.9533168645E-02  7.0210883231E-01
  2.3428093645E+04  1.2791350985E+00  3.1958508919E+00  4.1839315467E-02  4.0006963429E-02  7.0328132888E-01
  2.3525083612E+04  1.2870344419E+00  3.1930782384E+00  4.2353559079E-02  4.0484315408E-02  7.0444269668E-01
  2.3622073579E+04  1.2949497662E+00  3.1903193832E+00  4.2871968374E-02  4.0965233612E-02  7.0559301700E-01
  2.3719063545E+04  1.3029005954E+00  3.1875961751E+00  4.3394559784E-02  4.1449750511E-02  7.0673237217E-01
  2.3816053512E+04  1.3109007071E+00  3.1849234439E+00  4.3921349739E-02  4.1937892681E-02  7.0786084548E-01
  2.3913043478E+04  1.3189171278E+00  3.1822638025E+00  4.4452354666E-02  4.2429629875E-02  7.0897852111E-01
  2.4010033445E+04  1.3269498245E+00  3.1796171342E+00  4.4987590988E-02  4.2924970888E-02  7.1008548406E-01
  2.4107023411E+04  1.3350074209E+00  3.1769926913E+00  4.5527075128E-02  4.3423935358E-02  7.1118182003E-01
  2.4204013378E+04  1.3431261584E+00  3.1744291522E+00  4.6070823503E-02  4.3926578605E-02  7.1226761542E-01
  2.4301003344E+04  1.3512615048E+00  3.1718779212E+00  4.6618852528E-02  4.4432853853E-02  7.1334295719E-01
  2.4397993311E+04  1.3594134276E+00  3.1693388907E+00  4.7171178617E-02  4.4942769663E-02  7.1440793284E-01
  2.4494983278E+04  1.3675818945E+00  3.1668119539E+00  4.7727818179E-02  4.5456334528E-02  7.1546263032E-01
  2.4591973244E+04  1.3758146472E+00  3.1643464793E+00  4.8288787621E-02  4.5973620658E-02  7.1650713798E-01
  2.4688963211E+04  1.3840707746E+00  3.1618993164E+00  4.8854103348E-02  4.6494583435E-02  7.1754154420E-01
  2.4785953177E+04  1.3923437844E+00  3.1594636297E+00  4.9423781760E-02  4.7019222657E-02  7.1856593073E-01
  2.4882943144E+04  1.4006336448E+00  3.1570393208E+00  4.9997839257E-02  4.7547546578E-02  7.1958037312E-01
  2.4979933110E+04  1.4089689848E+00  3.1546550950E+00  5.0576292234E-02  4.8079603447E-02  7.2058494758E-01
  2.5076923077E+04  1.4173473959E+00  3.1523079094E+00  5.1159704413E-02  4.8615893653E-02  7.2157973127E-01
  2.5173913043E+04  1.4257429978E+00  3.1499715208E+00  5.1747699436E-02  4.9156034044E-02  7.2256480210E-01
  2.5270903010E+04  1.4341557595E+00  3.1476458383E+00  5.2340152371E-02  4.9699904889E-02  7.2354023878E-01
  2.5367892977E+04  1.4425905945E+00  3.1453358217E+00  5.2937079712E-02  5.0247521486E-02  7.2450612066E-01
  2.5464882943E+04  1.4510903826E+00  3.1430848186E+00  5.3538497950E-02  5.0798955981E-02  7.2546252767E-01
  2.5561872910E+04  1.4596076538E+00  3.1408439745E+00  5.4144423573E-02  5.1354147149E-02  7.2640954032E-01
  2.5658862876E+04  1.4681423775E+00  3.1386132054E+00  5.4754873069E-02  5.1913102826E-02  7.2734723956E-01
  2.5755852843E+04  1.4766945233E+00  3.1363924281E+00  5.5369862920E-02  5.2475830773E-02  7.2827570674E-01
  2.5852842809E+04  1.4852932355E+00  3.1342123325E+00  5.5989409609E-02  5.3042384706E-02  7.2919502358E-01
  2.5949832776E+04  1.4939301507E+00  3.1320635087E+00  5.6613529613E-02  5.3612760488E-02  7.3010527207E-01
  2.6046822742E+04  1.5025847870E+00  3.1299241664E+00  5.7242239409E-02  5.4186933801E-02  7.3100653445E-01
  2.6143812709E+04  1.5112571145E+00  3.1277942286E+00  5.7875555472E-02  5.4764912161E-02  7.3189889313E-01
  2.6240802676E+04  1.5199472021E+00  3.1256737279E+00  5.8513494272E-02  5.5346703175E-02  7.3278242823E-01
  2.6337792642E+04  1.5287015826E+00  3.1236135854E+00  5.9156072279E-02  5.5932392905E-02  7.3365721232E-01
  2.6434782609E+04  1.5374739281E+00  3.1215623658E+00  5.9803305959E-02  5.6521912139E-02  7.3452331709E-01
  2.6531772575E+04  1.5462642095E+00  3.1195199981E+00  6.0455211777E-02  5.7115268139E-02  7.3538081489E-01
  2.6628762542E+04  1.5550723976E+00  3.1174864119E+00  6.1111806194E-02  5.7712468097E-02  7.3622977864E-01
  2.6725752508E+04  1.5639131994E+00  3.1154785064E+00  6.1773105670E-02  5.8313545561E-02  7.3707028179E-01
  2.6822742475E+04  1.5728009024E+00  3.1135122759E+00  6.2439126662E-02  5.8918534389E-02  7.3790239824E-01
  2.6919732441E+04  1.5817067611E+00  3.1115543766E+00  6.3109885625E-02  5.9527390630E-02  7.3872620228E-01
  2.7016722408E+04  1.5906307468E+00  3.1096047434E+00  6.3785399011E-02  6.0140121217E-02  7.3954176855E-01
  2.7113712375E+04  1.5995728312E+00  3.1076633119E+00  6.4465683271E-02  6.0756733010E-02  7.4034917196E-01
  2.7210702341E+04  1.6085570261E+00  3.1057591423E+00  6.5150754851E-02  6.1377279170E-02  7.4114848768E-01
  2.7307692308E+04  1.6175759396E+00  3.1038827666E+00  6.5840630197E-02  6.2001753535E-02  7.4193979103E-01
  2.7404682274E+04  1.6266131755E+00  3.1020141712E+00  6.6536833191E-02  6.2631467211E-02  7.4272315747E-01
  2.7501672241E+04  1.6356687061E+00  3.1001532963E+00  6.7244315851E-02  6.3270793009E-02  7.4349866258E-01
  2.7598662207E+04  1.6447425036E+00  3.0983000831E+00  6.7956790679E-02  6.3914146793E-02  7.4426638174E-01
  2.7695652174E+04  1.6538631852E+00  3.0964912850E+00  6.8674275169E-02  6.4561595230E-02  7.4502638584E-01
  2.7792642140E+04  1.6630109811E+00  3.0947009567E+00  6.9396786819E-02  6.5213105625E-02  7.4577874129E-01
  2.7889632107E+04  1.6721772424E+00  3.0929178950E+00  7.0124343122E-02  6.5868667109E-02  7.4652351481E-01
  2.7986622074E+04  1.6813619420E+00  3.0911420455E+00  7.0856961575E-02  6.6528286495E-02  7.4726077351E-01
  2.8083612040E+04  1.6905650529E+00  3.0893733540E+00  7.1594659672E-02  6.7191970519E-02  7.4799058487E-01
  2.8180602007E+04  1.6998157876E+00  3.0876520212E+00  7.2337454907E-02  6.7859791882E-02  7.4871301671E-01
  2.8277591973E+04  1.7090899249E+00  3.0859441630E+00  7.3085364775E-02  6.8531704041E-02  7.4942813708E-01
  2.8374581940E+04  1.7183826464E+00  3.0842430925E+00  7.3838406768E-02  6.9207702819E-02  7.5013601425E-01
  2.8471571906E+04  1.7276939258E+00  3.0825487595E+00  7.4596598380E-02  6.9887794670E-02  7.5083671666E-01
  2.8568561873E+04  1.7370237366E+00  3.0808611146E+00  7.5359957104E-02  7.0571985966E-02  7.5153031286E-01
  2.8665551839E+04  1.7463986238E+00  3.0792197663E+00  7.6128500432E-02  7.1260348481E-02  7.5221687151E-01
  2.8762541806E+04  1.7557963514E+00  3.0775910136E+00  7.6902245856E-02  7.1952835195E-02  7.5289646126E-01
  2.8859531773E+04  1.7652127580E+00  3.0759686012E+00  7.7681210869E-02  7.2649442190E-02  7.5356915079E-01
  2.8956521739E+04  1.7746478177E+00  3.0743524831E+00  7.8465412960E-02  7.3350175552E-02  7.5423500842E-01
  2.9053511706E+04  1.7841015049E+00  3.0727426140E+00  7.9254869621E-02  7.4055041286E-02  7.5489409804E-01
  2.9150501672E+04  1.7935952375E+00  3.0711741649E+00  8.0049598344E-02  7.4764103447E-02  7.5554648052E-01
  2.9247491639E+04  1.8031135984E+00  3.0696213494E+00  8.0849616617E-02  7.5477327552E-02  7.5619221698E-01
  2.9344481605E+04  1.8126507086E+00  3.0680744560E+00  8.1654941931E-02  7.6194703695E-02  7.5683136881E-01
  2.9441471572E+04  1.8222065429E+00  3.0665334428E+00  8.2465591776E-02  7.6916237590E-02  7.5746399760E-01
  2.9538461538E+04  1.8317810763E+00  3.0649982679E+00  8.3281583640E-02  7.7641934869E-02  7.5809016516E-01
  2.9635451505E+04  1.8413890029E+00  3.0634960004E+00  8.4102935012E-02  7.8371845489E-02  7.5870993340E-01
  2.9732441472E+04  1.8510248369E+00  3.0620161359E+00  8.4929663381E-02  7.9105959674E-02  7.5932336435E-01
  2.9829431438E+04  1.8606794663E+00  3.0605418024E+00  8.5761786235E-02  7.9844255716E-02  7.5993052008E-01
  2.9926421405E+04  1.8703528663E+00  3.0590729613E+00  8.6599321061E-02  8.0586738951E-02  7.6053146270E-01
  3.0023411371E+04  1.8800450125E+00  3.0576095744E+00  8.7442996200E-02  8.1334029633E-02  7.6112625428E-01
  3.0120401338E+04  1.8897630851E+00  3.0561671247E+00  8.8294381976E-02  8.2087498193E-02  7.6171495685E-01
  3.0217391304E+04  1.8995127125E+00  3.0547574238E+00  8.9151280098E-02  8.2845251256E-02  7.6229763200E-01
  3.0314381271E+04  1.9092811545E+00  3.0533528876E+00  9.0013708392E-02  8.3607250721E-02  7.6287433513E-01
  3.0411371237E+04  1.9190683870E+00  3.0519534806E+00  9.0881684682E-02  8.4373501693E-02  7.6344512276E-01
  3.0508361204E+04  1.9288743862E+00  3.0505591680E+00  9.1755226794E-02  8.5144009195E-02  7.6401005291E-01
  3.0605351171E+04  1.9386993356E+00  3.0491704908E+00  9.2634352555E-02  8.5918779029E-02  7.6456918318E-01
  3.0702341137E+04  1.9485580712E+00  3.0478283943E+00  9.3519079788E-02  8.6697878659E-02  7.6512253085E-01
  3.0799331104E+04  1.9584356084E+00  3.0464911187E+00  9.4409426321E-02  8.7481251225E-02  7.6567187658E-01
  3.0896321070E+04  1.9683319238E+00  3.0451586316E+00  9.5305409981E-02  8.8268901440E-02  7.6622099449E-01
  3.0993311037E+04  1.9782469939E+00  3.0438309011E+00  9.6207048592E-02  8.9060833933E-02  7.6677011341E-01
  3.1090301003E+04  1.9881807954E+00  3.0425078953E+00  9.7114359983E-02  8.9857053245E-02  7.6731921640E-01
  3.1187290970E+04  1.9981392201E+00  3.0412133433E+00  9.8027361981E-02  9.0657597124E-02  7.6786829407E-01
