#[MATERIAL DEFINITION FOR MC-GPU: interaction mean free path and sampling data from PENELOPE 2006]
#[MATERIAL NAME]
# MetallImplants_32                                             
#[NOMINAL DENSITY (g/cm^3)]
#   2.79105000
#[NUMBER OF DATA VALUES]
#   1495
#[MEAN FREE PATHS (cm) (ie, average distance between interactions)]
#[Energy (eV)     | Rayleigh        | Compton         | Photoelectric   | TOTAL (+pair prod) (cm) | Rayleigh: max cumul prob F^2]
  5.0000000000E+03  2.0035779267E-01  5.5094904550E+00  5.2839240980E-04  5.2695217049E-04  2.0263707619E-01
  5.0969899666E+03  2.0356224197E-01  5.4423962852E+00  5.5197048923E-04  5.5042216443E-04  2.0704492358E-01
  5.1939799331E+03  2.0678600302E-01  5.3778088253E+00  5.7777382690E-04  5.7610226440E-04  2.1142820418E-01
  5.2909698997E+03  2.1002886023E-01  5.3155981024E+00  6.0504133933E-04  6.0323490590E-04  2.1578705878E-01
  5.3879598662E+03  2.1329058422E-01  5.2556427232E+00  6.3352578874E-04  6.3157372738E-04  2.2012168304E-01
  5.4849498328E+03  2.1657093297E-01  5.1978291510E+00  6.6280704507E-04  6.6070074574E-04  2.2443223301E-01
  5.5819397993E+03  2.1986965286E-01  5.1420510558E+00  6.9289322619E-04  6.9062374528E-04  2.2871884669E-01
  5.6789297659E+03  2.2318647972E-01  5.0882087275E+00  7.2379136061E-04  7.2134942111E-04  2.3298170951E-01
  5.7759197324E+03  2.2652113977E-01  5.0362085465E+00  7.5588109008E-04  7.5325449074E-04  2.3722105157E-01
  5.8729096990E+03  2.2987335054E-01  4.9859625036E+00  7.8930210692E-04  7.8647712522E-04  2.4143710264E-01
  5.9698996656E+03  2.3324282193E-01  4.9373877548E+00  8.2361692262E-04  8.2058243433E-04  2.4563003703E-01
  6.0668896321E+03  2.3662926561E-01  4.8904056712E+00  8.5913407547E-04  8.5587627212E-04  2.4980005316E-01
  6.1638795987E+03  2.4003241084E-01  4.8449406028E+00  8.9572246945E-04  8.9222801301E-04  2.5394738319E-01
  6.2608695652E+03  2.4345200288E-01  4.8009198596E+00  9.3326118085E-04  9.2951723178E-04  2.5807230736E-01
  6.3578595318E+03  2.4688778136E-01  4.7582748998E+00  9.7175959662E-04  9.6775284550E-04  2.6217501093E-01
  6.4548494983E+03  2.5034097470E-01  4.7169629091E+00  1.0112270500E-03  1.0069437330E-03  2.6625563503E-01
  6.5518394649E+03  2.5381170554E-01  4.6769279689E+00  1.0516728215E-03  1.0470986967E-03  2.7031434845E-01
  6.6488294314E+03  2.5729818104E-01  4.6380902601E+00  1.0931061404E-03  1.0882264434E-03  2.7435134548E-01
  6.7458193980E+03  2.6080010950E-01  4.6003953262E+00  1.1355361853E-03  1.1303356438E-03  2.7836684386E-01
  6.8428093645E+03  2.6431719422E-01  4.5637916837E+00  1.1789720852E-03  1.1734349088E-03  2.8236108304E-01
  6.9397993311E+03  2.6784913413E-01  4.5282306153E+00  1.2234229208E-03  1.2175327907E-03  2.8633431269E-01
  7.0367892977E+03  2.7139579614E-01  4.4936682968E+00  1.2690286651E-03  1.2627674385E-03  2.9028668671E-01
  7.1337792642E+03  2.7496207836E-01  4.4601292157E+00  1.3158957738E-03  1.3092438061E-03  2.9421831757E-01
  7.2307692308E+03  2.7854278780E-01  4.4275032041E+00  1.3638256547E-03  1.3567646138E-03  2.9812933785E-01
  7.3277591973E+03  2.8213767233E-01  4.3957501635E+00  1.4128276666E-03  1.4053386310E-03  3.0201989772E-01
  7.4247491639E+03  2.8574646906E-01  4.3648321010E+00  1.4629111247E-03  1.4549745718E-03  3.0589016362E-01
  7.5217391304E+03  2.8937202502E-01  4.3347507745E+00  1.5140853009E-03  1.5056811847E-03  3.0974031704E-01
  7.6187290970E+03  2.9301523778E-01  4.3054837440E+00  1.5663594245E-03  1.5574671216E-03  3.1357053789E-01
  7.7157190635E+03  2.9667195703E-01  4.2769507470E+00  1.6197426835E-03  1.6103408313E-03  3.1738092849E-01
  7.8127090301E+03  3.0034188149E-01  4.2491208424E+00  1.6742442248E-03  1.6643108145E-03  3.2117157765E-01
  7.9096989967E+03  3.0402971852E-01  4.2220207710E+00  1.7298731550E-03  1.7193856892E-03  3.2494258827E-01
  8.0066889632E+03  3.0773401802E-01  4.1956069123E+00  1.7867327686E-03  1.7756668969E-03  3.2869407600E-01
  8.1036789298E+03  3.1145103583E-01  4.1698134324E+00  1.8460487843E-03  1.8343639421E-03  3.3242616831E-01
  8.2006688963E+03  3.1518205021E-01  4.1446318692E+00  1.9065929936E-03  1.8942628669E-03  3.3613899959E-01
  8.2976588629E+03  3.1893358570E-01  4.1201076389E+00  1.9683758501E-03  1.9553736113E-03  3.3983265750E-01
  8.3946488294E+03  3.2269737594E-01  4.0961323148E+00  2.0314077716E-03  2.0177054948E-03  3.4350720236E-01
  8.4916387960E+03  3.2647341780E-01  4.0726873026E+00  2.0956991412E-03  2.0812680923E-03  3.4716270516E-01
  8.5886287625E+03  3.3027190006E-01  4.0498537704E+00  2.1612603073E-03  2.1460713890E-03  3.5079924718E-01
  8.6856187291E+03  3.3408209679E-01  4.0275067216E+00  2.2281015845E-03  2.2121244172E-03  3.5441691921E-01
  8.7826086957E+03  3.3790497428E-01  4.0056395163E+00  2.2962332539E-03  2.2794366548E-03  3.5801583287E-01
  8.8795986622E+03  3.4174991412E-01  3.9843225254E+00  2.3656655637E-03  2.3480179638E-03  3.6159607777E-01
  8.9765886288E+03  3.4560594171E-01  3.9634372063E+00  2.4364087295E-03  2.4178771668E-03  3.6515766717E-01
  9.0735785953E+03  3.4947737893E-01  3.9430084876E+00  2.5086545860E-03  2.4892026330E-03  3.6870062064E-01
  9.1705685619E+03  3.5336812471E-01  3.9230547447E+00  2.5822994704E-03  2.5618916666E-03  3.7222496710E-01
  9.2675585284E+03  3.5726927887E-01  3.9034842798E+00  2.6572972804E-03  2.6358976148E-03  3.7573074425E-01
  9.3645484950E+03  3.6119110997E-01  3.8843708869E+00  2.7336583210E-03  2.7112304470E-03  3.7921799806E-01
  9.4615384615E+03  3.6512699088E-01  3.8656446375E+00  2.8113928672E-03  2.7878991190E-03  3.8268678219E-01
  9.5585284281E+03  3.6907584939E-01  3.8472853157E+00  2.8905111644E-03  2.8659128463E-03  3.8613715755E-01
  9.6555183946E+03  3.7304666047E-01  3.8293514963E+00  2.9710234285E-03  2.9452814639E-03  3.8956919183E-01
  9.7525083612E+03  3.7702680016E-01  3.8117323762E+00  3.0529398469E-03  3.0260133500E-03  3.9298295885E-01
  9.8494983278E+03  3.8102914377E-01  3.7945158726E+00  3.1362705782E-03  3.1081185493E-03  3.9637849693E-01
  9.9464882943E+03  3.8504403133E-01  3.7776173435E+00  3.2210257532E-03  3.1916055188E-03  3.9975579425E-01
  1.0043478261E+04  3.8907524710E-01  3.7610552831E+00  3.3080786339E-03  3.2773307990E-03  4.0311484894E-01
  1.0140468227E+04  3.9312501771E-01  3.7448348419E+00  3.3976994607E-03  3.3655580475E-03  4.0645566651E-01
  1.0237458194E+04  3.9718584618E-01  3.7288938428E+00  3.4888603632E-03  3.4552765329E-03  4.0977825941E-01
  1.0334448161E+04  4.0127072045E-01  3.7133126774E+00  3.5815728394E-03  3.5464976246E-03  4.1308264670E-01
  1.0431438127E+04  4.0536318104E-01  3.6979701434E+00  3.6758483637E-03  3.6392302291E-03  4.1636885363E-01
  1.0528428094E+04  4.0948217728E-01  3.6829843189E+00  3.7716983869E-03  3.7334862111E-03  4.1963691137E-01
  1.0625418060E+04  4.1360952947E-01  3.6682268263E+00  3.8691343365E-03  3.8292741670E-03  4.2288685661E-01
  1.0722408027E+04  4.1776037519E-01  3.6537876853E+00  3.9681676171E-03  3.9266056297E-03  4.2611872759E-01
  1.0819397993E+04  4.2192274032E-01  3.6395827576E+00  4.0688096106E-03  4.0254895963E-03  4.2933252619E-01
  1.0916387960E+04  4.2610624383E-01  3.6256647368E+00  4.1710716762E-03  4.1259370757E-03  4.3252824121E-01
  1.1013377926E+04  4.3030368932E-01  3.6119819330E+00  4.2749651510E-03  4.2279573930E-03  4.3570586852E-01
  1.1110367893E+04  4.3452065505E-01  3.5985611408E+00  4.3805013502E-03  4.3315611227E-03  4.3886540999E-01
  1.1207357860E+04  4.3875319357E-01  3.5853718901E+00  4.4876915671E-03  4.4367578121E-03  4.4200687318E-01
  1.1304347826E+04  4.4300442225E-01  3.5724259708E+00  4.5965470734E-03  4.5435577268E-03  4.4513027106E-01
  1.1401337793E+04  4.4727201085E-01  3.5597034224E+00  4.7070791198E-03  4.6519704927E-03  4.4823562176E-01
  1.1498327759E+04  4.5155829967E-01  3.5472114336E+00  4.8192989355E-03  4.7620062318E-03  4.5132294829E-01
  1.1595317726E+04  4.5586083887E-01  3.5349303216E+00  4.9332177291E-03  4.8736744622E-03  4.5439227359E-01
  1.1692307692E+04  4.6018298162E-01  3.5228726230E+00  5.0488466886E-03  4.9869853728E-03  4.5744359471E-01
  1.1789297659E+04  4.6452031441E-01  3.5110091438E+00  5.1661969813E-03  5.1019481392E-03  4.6047690460E-01
  1.1886287625E+04  4.6887910159E-01  3.4993672964E+00  5.2852797545E-03  5.2185732795E-03  4.6349220181E-01
  1.1983277592E+04  4.7325101246E-01  3.4878989970E+00  5.4061061355E-03  5.3368693374E-03  4.6648949014E-01
  1.2080267559E+04  4.7764723134E-01  3.4766556716E+00  5.5286872315E-03  5.4568474793E-03  4.6946877833E-01
  1.2177257525E+04  4.8205344520E-01  3.4655613484E+00  5.6530341302E-03  5.5785152674E-03  4.7243007988E-01
  1.2274247492E+04  4.8648787987E-01  3.4547002426E+00  5.7791579001E-03  5.7018848995E-03  4.7537341284E-01
  1.2371237458E+04  4.9092806098E-01  3.4439598490E+00  5.9070695900E-03  5.8269625393E-03  4.7829879830E-01
  1.2468227425E+04  4.9540149324E-01  3.4334656113E+00  6.0367802299E-03  5.9537618696E-03  4.8120624268E-01
  1.2565217391E+04  4.9988055054E-01  3.4230842995E+00  6.1699183917E-03  6.0838607838E-03  4.8409574436E-01
  1.2662207358E+04  5.0438848235E-01  3.4129183356E+00  6.3057375170E-03  6.2165342520E-03  4.8696730660E-01
  1.2759197324E+04  5.0890757055E-01  3.4028835925E+00  6.4434757574E-03  6.3510369161E-03  4.8982093741E-01
  1.2856187291E+04  5.1344924649E-01  3.3930267907E+00  6.5831453324E-03  6.4873811267E-03  4.9265664932E-01
  1.2953177258E+04  5.1800922847E-01  3.3833253105E+00  6.7247584456E-03  6.6255765728E-03  4.9547445925E-01
  1.3050167224E+04  5.2258415920E-01  3.3737610398E+00  6.8683272851E-03  6.7656329980E-03  4.9827438829E-01
  1.3147157191E+04  5.2718589988E-01  3.3643802532E+00  7.0138640238E-03  6.9075629264E-03  5.0105645851E-01
  1.3244147157E+04  5.3179389199E-01  3.3550942140E+00  7.1613808194E-03  7.0513727818E-03  5.0382067886E-01
  1.3341137124E+04  5.3643788509E-01  3.3460207372E+00  7.3108898144E-03  7.1970785502E-03  5.0656705728E-01
  1.3438127090E+04  5.4108872598E-01  3.3370387393E+00  7.4624031363E-03  7.3446847734E-03  5.0929560621E-01
  1.3535117057E+04  5.4576540679E-01  3.3282204926E+00  7.6159328981E-03  7.4942054149E-03  5.1200634240E-01
  1.3632107023E+04  5.5045996134E-01  3.3195315566E+00  7.7714911977E-03  7.6456490291E-03  5.1469928673E-01
  1.3729096990E+04  5.5516860821E-01  3.3109545679E+00  7.9290901187E-03  7.7990248855E-03  5.1737446403E-01
  1.3826086957E+04  5.5990773957E-01  3.3025482922E+00  8.0887417301E-03  7.9543466461E-03  5.2003190591E-01
  1.3923076923E+04  5.6465377289E-01  3.2942219006E+00  8.2504580867E-03  8.1116191383E-03  5.2267165162E-01
  1.4020066890E+04  5.6943212060E-01  3.2860657652E+00  8.4142512289E-03  8.2708581128E-03  5.2529371161E-01
  1.4117056856E+04  5.7422382768E-01  3.2780082357E+00  8.5801331832E-03  8.4320692153E-03  5.2789809641E-01
  1.4214046823E+04  5.7903308087E-01  3.2700619102E+00  8.7481159619E-03  8.5952633042E-03  5.3048482094E-01
  1.4311036789E+04  5.8387132412E-01  3.2622640955E+00  8.9182115636E-03  8.7604531069E-03  5.3305390437E-01
  1.4408026756E+04  5.8871690533E-01  3.2545373575E+00  9.0904319731E-03  8.9276431095E-03  5.3560536994E-01
  1.4505016722E+04  5.9359615084E-01  3.2469689168E+00  9.2647891614E-03  9.0968498048E-03  5.3813924480E-01
  1.4602006689E+04  5.9848937058E-01  3.2394897485E+00  9.4412950862E-03  9.2680779690E-03  5.4065555991E-01
  1.4698996656E+04  6.0339810868E-01  3.2321030852E+00  9.6199616916E-03  9.4413376764E-03  5.4315434985E-01
  1.4795986622E+04  6.0833982798E-01  3.2248634068E+00  9.8008009083E-03  9.6166434333E-03  5.4563565270E-01
  1.4892976589E+04  6.1328933442E-01  3.2176870888E+00  9.9838246538E-03  9.7939979902E-03  5.4809950992E-01
  1.4989966555E+04  6.1826798421E-01  3.2106399717E+00  1.0169044833E-02  9.9734169751E-03  5.5054596616E-01
  1.5086956522E+04  6.2326709535E-01  3.2036923639E+00  1.0359137848E-02  1.0157469384E-02  5.5297506921E-01
  1.5183946488E+04  6.2827420407E-01  3.1968041675E+00  1.0551844153E-02  1.0343974597E-02  5.5538686266E-01
  1.5280936455E+04  6.3332300370E-01  3.1900753799E+00  1.0746873947E-02  1.0532662021E-02  5.5778137282E-01
  1.5377926421E+04  6.3838080363E-01  3.1834054372E+00  1.0944240231E-02  1.0723532219E-02  5.6015862789E-01
  1.5474916388E+04  6.4345655836E-01  3.1768193981E+00  1.1143955993E-02  1.0916598278E-02  5.6251865991E-01
  1.5571906355E+04  6.4856587061E-01  3.1703603643E+00  1.1346034214E-02  1.1111875669E-02  5.6486150466E-01
  1.5668896321E+04  6.5368365031E-01  3.1639544465E+00  1.1550487865E-02  1.1309366595E-02  5.6718720149E-01
  1.5765886288E+04  6.5882880230E-01  3.1576532670E+00  1.1757329904E-02  1.1509087591E-02  5.6949579318E-01
  1.5862876254E+04  6.6399917062E-01  3.1514487519E+00  1.1966573283E-02  1.1711048327E-02  5.7178732581E-01
  1.5959866221E+04  6.6917822726E-01  3.1452941376E+00  1.2178230941E-02  1.1915253261E-02  5.7406184865E-01
  1.6056856187E+04  6.7439267367E-01  3.1392595298E+00  1.2392315808E-02  1.2121722026E-02  5.7631941402E-01
  1.6153846154E+04  6.7962539784E-01  3.1332974290E+00  1.2608840805E-02  1.2330458780E-02  5.7856007717E-01
  1.6250836120E+04  6.8486703496E-01  3.1273822404E+00  1.2827818844E-02  1.2541470071E-02  5.8078389615E-01
  1.6347826087E+04  6.9015056597E-01  3.1215970904E+00  1.3049262825E-02  1.2754778392E-02  5.8299093095E-01
  1.6444816054E+04  6.9544695206E-01  3.1158660923E+00  1.3273185640E-02  1.2970382905E-02  5.8518123140E-01
  1.6541806020E+04  7.0075282695E-01  3.1101800778E+00  1.3499600172E-02  1.3188292107E-02  5.8735484107E-01
  1.6638795987E+04  7.0610477520E-01  3.1046274988E+00  1.3728519295E-02  1.3408530571E-02  5.8951180681E-01
  1.6735785953E+04  7.1146613549E-01  3.0991170195E+00  1.3959955870E-02  1.3631093652E-02  5.9165217874E-01
  1.6832775920E+04  7.1683949189E-01  3.0936542532E+00  1.4193922754E-02  1.3855992077E-02  5.9377601011E-01
  1.6929765886E+04  7.2225749646E-01  3.0883147378E+00  1.4430432791E-02  1.4083249499E-02  5.9588335717E-01
  1.7026755853E+04  7.2768514944E-01  3.0830148621E+00  1.4669498817E-02  1.4312861026E-02  5.9797427905E-01
  1.7123745819E+04  7.3312543920E-01  3.0777609450E+00  1.4911133659E-02  1.4544837501E-02  6.0004883764E-01
  1.7220735786E+04  7.3861082045E-01  3.0726250299E+00  1.5155350136E-02  1.4779203148E-02  6.0210709747E-01
  1.7317725753E+04  7.4410609070E-01  3.0675264583E+00  1.5402161055E-02  1.5015952061E-02  6.0414912561E-01
  1.7414715719E+04  7.4961264472E-01  3.0624678600E+00  1.5651579218E-02  1.5255094292E-02  6.0617499155E-01
  1.7511705686E+04  7.5516670413E-01  3.0575266511E+00  1.5903927455E-02  1.5496950859E-02  6.0818476433E-01
  1.7608695652E+04  7.6073089722E-01  3.0526206407E+00  1.6161205635E-02  1.5743399115E-02  6.1017850266E-01
  1.7705685619E+04  7.6630518652E-01  3.0477493862E+00  1.6421198236E-02  1.5992331355E-02  6.1215626457E-01
  1.7802675585E+04  7.7192670673E-01  3.0429896584E+00  1.6683918792E-02  1.6243776056E-02  6.1411811102E-01
  1.7899665552E+04  7.7756087591E-01  3.0382678780E+00  1.6949380831E-02  1.6497726325E-02  6.1606410570E-01
  1.7996655518E+04  7.8320538810E-01  3.0335788812E+00  1.7217597871E-02  1.6754190783E-02  6.1799431495E-01
  1.8093645485E+04  7.8889168841E-01  3.0289856325E+00  1.7488583426E-02  1.7013195762E-02  6.1990880760E-01
  1.8190635452E+04  7.9459673083E-01  3.0244401782E+00  1.7762351001E-02  1.7274739394E-02  6.2180765490E-01
  1.8287625418E+04  8.0031236372E-01  3.0199256623E+00  1.8038914096E-02  1.7538827078E-02  6.2369093041E-01
  1.8384615385E+04  8.0606212545E-01  3.0154877136E+00  1.8318286204E-02  1.7805481487E-02  6.2555870983E-01
  1.8481605351E+04  8.1183892637E-01  3.0111111410E+00  1.8600480809E-02  1.8074708816E-02  6.2741107097E-01
  1.8578595318E+04  8.1762656589E-01  3.0067637785E+00  1.8885511391E-02  1.8346509717E-02  6.2924809069E-01
  1.8675585284E+04  8.2343839527E-01  3.0024706133E+00  1.9173391422E-02  1.8620901452E-02  6.3106983709E-01
  1.8772575251E+04  8.2928782993E-01  2.9982559036E+00  1.9464134368E-02  1.8897901789E-02  6.3287637833E-01
  1.8869565217E+04  8.3514835206E-01  2.9940687842E+00  1.9757753687E-02  1.9177504874E-02  6.3466778501E-01
  1.8966555184E+04  8.4102077983E-01  2.9899105023E+00  2.0054262832E-02  1.9459720546E-02  6.3644413009E-01
  1.9063545151E+04  8.4694371339E-01  2.9858510319E+00  2.0353675248E-02  1.9744582168E-02  6.3820548874E-01
  1.9160535117E+04  8.5287798414E-01  2.9818176324E+00  2.0656004375E-02  2.0032075368E-02  6.3995193825E-01
  1.9257525084E+04  8.5882355625E-01  2.9778100057E+00  2.0961263647E-02  2.0322209334E-02  6.4168355793E-01
  1.9354515050E+04  8.6480675258E-01  2.9738744198E+00  2.1269466488E-02  2.0615010417E-02  6.4340042897E-01
  1.9451505017E+04  8.7081562793E-01  2.9699885764E+00  2.1580626319E-02  2.0910480620E-02  6.4510263439E-01
  1.9548494983E+04  8.7683605554E-01  2.9661271004E+00  2.1894756555E-02  2.1208619942E-02  6.4679025811E-01
  1.9645484950E+04  8.8287702668E-01  2.9623051970E+00  2.2211870602E-02  2.1509443565E-02  6.4846337736E-01
  1.9742474916E+04  8.8896135250E-01  2.9585610803E+00  2.2531981861E-02  2.1812976602E-02  6.5012206656E-01
  1.9839464883E+04  8.9505748243E-01  2.9548400100E+00  2.2855103727E-02  2.2119206761E-02  6.5176640219E-01
  1.9936454849E+04  9.0116538149E-01  2.9511417328E+00  2.3181249589E-02  2.2428142921E-02  6.5339646273E-01
  2.0033444816E+04  9.0731515239E-01  2.9475157453E+00  2.3511096141E-02  2.2740436342E-02  6.5501232858E-01
  2.0130434783E+04  9.1348785273E-01  2.9439296528E+00  2.3845284070E-02  2.3056668235E-02  6.5661408195E-01
  2.0227424749E+04  9.1967257563E-01  2.9403651286E+00  2.4182581584E-02  2.3375673904E-02  6.5820180674E-01
  2.0324414716E+04  9.2587699463E-01  2.9368342511E+00  2.4523002499E-02  2.3697468230E-02  6.5977558846E-01
  2.0421404682E+04  9.3212729994E-01  2.9333780567E+00  2.4866560626E-02  2.4022080653E-02  6.6133551415E-01
  2.0518394649E+04  9.3838988409E-01  2.9299422769E+00  2.5213269769E-02  2.4349495016E-02  6.6288167081E-01
  2.0615384615E+04  9.4466471299E-01  2.9265266955E+00  2.5563143730E-02  2.4679720214E-02  6.6441413875E-01
  2.0712374582E+04  9.5097600564E-01  2.9231682578E+00  2.5916196305E-02  2.5012784587E-02  6.6593299724E-01
  2.0809364548E+04  9.5731754589E-01  2.9198564922E+00  2.6272441282E-02  2.5348692737E-02  6.6743832728E-01
  2.0906354515E+04  9.6367159092E-01  2.9165638524E+00  2.6631892448E-02  2.5687439392E-02  6.6893021160E-01
  2.1003344482E+04  9.7003810721E-01  2.9132901400E+00  2.6994563583E-02  2.6029033262E-02  6.7040873448E-01
  2.1100334448E+04  9.7645568524E-01  2.9100919541E+00  2.7360468462E-02  2.6373515844E-02  6.7187398170E-01
  2.1197324415E+04  9.8289004206E-01  2.9069178247E+00  2.7729620855E-02  2.6720867605E-02  6.7332604043E-01
  2.1294314381E+04  9.8933713398E-01  2.9037616242E+00  2.8102034529E-02  2.7071093758E-02  6.7476499912E-01
  2.1391304348E+04  9.9580429214E-01  2.9006336471E+00  2.8477723244E-02  2.7424209345E-02  6.7619094989E-01
  2.1488294314E+04  1.0023200533E+00  2.8975738160E+00  2.8856700755E-02  2.7780248760E-02  6.7760399343E-01
  2.1585284281E+04  1.0088488170E+00  2.8945309708E+00  2.9238980813E-02  2.8139189382E-02  6.7900420845E-01
  2.1682274247E+04  1.0153905505E+00  2.8915049414E+00  2.9624577165E-02  2.8501039594E-02  6.8039167171E-01
  2.1779264214E+04  1.0219614735E+00  2.8885177701E+00  3.0013503552E-02  2.8865822913E-02  6.8176646173E-01
  2.1876254181E+04  1.0285730017E+00  2.8855843253E+00  3.0405773710E-02  2.9233559077E-02  6.8312865867E-01
  2.1973244147E+04  1.0351977710E+00  2.8826668167E+00  3.0801401371E-02  2.9604231146E-02  6.8447834424E-01
  2.2070234114E+04  1.0418357494E+00  2.8797650880E+00  3.1200400262E-02  2.9977847313E-02  6.8581560161E-01
  2.2167224080E+04  1.0485093912E+00  2.8769085158E+00  3.1602784105E-02  3.0354437853E-02  6.8714051529E-01
  2.2264214047E+04  1.0552182888E+00  2.8740958097E+00  3.2008566618E-02  3.0734011360E-02  6.8845317106E-01
  2.2361204013E+04  1.0619406708E+00  2.8712980620E+00  3.2417786783E-02  3.1116578055E-02  6.8975365588E-01
  2.2458193980E+04  1.0686765056E+00  2.8685151289E+00  3.2835322159E-02  3.1506624100E-02  6.9104205779E-01
  2.2555183946E+04  1.0754516575E+00  2.8657795646E+00  3.3256401179E-02  3.1899772253E-02  6.9231846583E-01
  2.2652173913E+04  1.0822595349E+00  2.8630822981E+00  3.3681038488E-02  3.2296025220E-02  6.9358296998E-01
  2.2749163880E+04  1.0890811446E+00  2.8603990782E+00  3.4109248725E-02  3.2695372104E-02  6.9483566104E-01
  2.2846153846E+04  1.0959164554E+00  2.8577297725E+00  3.4541046528E-02  3.3097821347E-02  6.9607663059E-01
  2.2943143813E+04  1.1027917406E+00  2.8551061942E+00  3.4976446531E-02  3.3503410004E-02  6.9730597090E-01
  2.3040133779E+04  1.1097002160E+00  2.8525193893E+00  3.5415463367E-02  3.3912140054E-02  6.9852377487E-01
  2.3137123746E+04  1.1166226760E+00  2.8499457799E+00  3.5858111665E-02  3.4323999157E-02  6.9973013357E-01
  2.3234113712E+04  1.1235590903E+00  2.8473852439E+00  3.6304406052E-02  3.4738995546E-02  7.0092512685E-01
  2.3331103679E+04  1.1305329597E+00  2.8448651582E+00  3.6754361153E-02  3.5157164355E-02  7.0210883231E-01
  2.3428093645E+04  1.1375436584E+00  2.8423841333E+00  3.7207991588E-02  3.5578514033E-02  7.0328132888E-01
  2.3525083612E+04  1.1445685990E+00  2.8399155088E+00  3.7665311976E-02  3.6003027154E-02  7.0444269668E-01
  2.3622073579E+04  1.1516077515E+00  2.8374591719E+00  3.8126336935E-02  3.6430711746E-02  7.0559301700E-01
  2.3719063545E+04  1.1586784786E+00  2.8350345755E+00  3.8591081077E-02  3.6861596691E-02  7.0673237217E-01
  2.3816053512E+04  1.1657930331E+00  2.8326549231E+00  3.9059559015E-02  3.7295705623E-02  7.0786084548E-01
  2.3913043478E+04  1.1729220913E+00  2.8302869275E+00  3.9531785355E-02  3.7733011639E-02  7.0897852111E-01
  2.4010033445E+04  1.1800656238E+00  2.8279304844E+00  4.0007774706E-02  3.8173522560E-02  7.1008548406E-01
  2.4107023411E+04  1.1872312998E+00  2.8255938302E+00  4.0487541669E-02  3.8617255851E-02  7.1118182003E-01
  2.4204013378E+04  1.1944513490E+00  2.8233113965E+00  4.0971100846E-02  3.9064260713E-02  7.1226761542E-01
  2.4301003344E+04  1.2016861686E+00  2.8210399233E+00  4.1458466835E-02  3.9514495543E-02  7.1334295719E-01
  2.4397993311E+04  1.2089357298E+00  2.8187793145E+00  4.1949654232E-02  3.9967967954E-02  7.1440793284E-01
  2.4494983278E+04  1.2162000037E+00  2.8165294754E+00  4.2444677631E-02  4.0424685497E-02  7.1546263032E-01
  2.4591973244E+04  1.2235214474E+00  2.8143343461E+00  4.2943551622E-02  4.0884712397E-02  7.1650713798E-01
  2.4688963211E+04  1.2308636784E+00  2.8121555205E+00  4.3446290794E-02  4.1348008968E-02  7.1754154420E-01
  2.4785953177E+04  1.2382209230E+00  2.8099869144E+00  4.3952909732E-02  4.1814575030E-02  7.1856593073E-01
  2.4882943144E+04  1.2455931530E+00  2.8078284404E+00  4.4463423020E-02  4.2284417923E-02  7.1958037312E-01
  2.4979933110E+04  1.2530058283E+00  2.8057056444E+00  4.4977845239E-02  4.2757580557E-02  7.2058494758E-01
  2.5076923077E+04  1.2604568070E+00  2.8036158182E+00  4.5496677711E-02  4.3234507935E-02  7.2157973127E-01
  2.5173913043E+04  1.2679230737E+00  2.8015356069E+00  4.6019585737E-02  4.3714859312E-02  7.2256480210E-01
  2.5270903010E+04  1.2754046006E+00  2.7994649294E+00  4.6546458215E-02  4.4198528210E-02  7.2354023878E-01
  2.5367892977E+04  1.2829057576E+00  2.7974082005E+00  4.7077309813E-02  4.4685528233E-02  7.2450612066E-01
  2.5464882943E+04  1.2904646777E+00  2.7954040035E+00  4.7612155196E-02  4.5175923550E-02  7.2546252767E-01
  2.5561872910E+04  1.2980391456E+00  2.7934088533E+00  4.8151009029E-02  4.5669659704E-02  7.2640954032E-01
  2.5658862876E+04  1.3056291342E+00  2.7914226749E+00  4.8693885973E-02  4.6166743663E-02  7.2734723956E-01
  2.5755852843E+04  1.3132346164E+00  2.7894453943E+00  4.9240800686E-02  4.6667182331E-02  7.2827570674E-01
  2.5852842809E+04  1.3208815105E+00  2.7875043365E+00  4.9791767826E-02  4.7171023483E-02  7.2919502358E-01
  2.5949832776E+04  1.3285623787E+00  2.7855911232E+00  5.0346802047E-02  4.7678263439E-02  7.3010527207E-01
  2.6046822742E+04  1.3362590064E+00  2.7836863531E+00  5.0905918001E-02  4.8188880568E-02  7.3100653445E-01
  2.6143812709E+04  1.3439713670E+00  2.7817899579E+00  5.1469130340E-02  4.8702881552E-02  7.3189889313E-01
  2.6240802676E+04  1.3516995218E+00  2.7799019664E+00  5.2036453712E-02  4.9220273156E-02  7.3278242823E-01
  2.6337792642E+04  1.3594848527E+00  2.7780677300E+00  5.2607902762E-02  4.9741131936E-02  7.3365721232E-01
  2.6434782609E+04  1.3672861601E+00  2.7762414394E+00  5.3183492134E-02  5.0265396321E-02  7.3452331709E-01
  2.6531772575E+04  1.3751034179E+00  2.7744230312E+00  5.3763236470E-02  5.0793072771E-02  7.3538081489E-01
  2.6628762542E+04  1.3829366002E+00  2.7726124429E+00  5.4347150411E-02  5.1324167679E-02  7.3622977864E-01
  2.6725752508E+04  1.3907987862E+00  2.7708247297E+00  5.4935248592E-02  5.1858710889E-02  7.3707028179E-01
  2.6822742475E+04  1.3987026818E+00  2.7690741407E+00  5.5527545651E-02  5.2396732520E-02  7.3790239824E-01
  2.6919732441E+04  1.4066227232E+00  2.7673309703E+00  5.6124056219E-02  5.2938193469E-02  7.3872620228E-01
  2.7016722408E+04  1.4145588852E+00  2.7655951605E+00  5.6724794929E-02  5.3483099902E-02  7.3954176855E-01
  2.7113712375E+04  1.4225111425E+00  2.7638666542E+00  5.7329776409E-02  5.4031457918E-02  7.4034917196E-01
  2.7210702341E+04  1.4305008489E+00  2.7621713482E+00  5.7939015286E-02  5.4583314814E-02  7.4114848768E-01
  2.7307692308E+04  1.4385214309E+00  2.7605008052E+00  5.8552526186E-02  5.5138665104E-02  7.4193979103E-01
  2.7404682274E+04  1.4465583071E+00  2.7588371899E+00  5.9171664307E-02  5.5698674755E-02  7.4272315747E-01
  2.7501672241E+04  1.4546114528E+00  2.7571804494E+00  5.9800833512E-02  5.6267232547E-02  7.4349866258E-01
  2.7598662207E+04  1.4626808435E+00  2.7555305310E+00  6.0434442287E-02  5.6839372456E-02  7.4426638174E-01
  2.7695652174E+04  1.4707919284E+00  2.7539201976E+00  6.1072506189E-02  5.7415153800E-02  7.4502638584E-01
  2.7792642140E+04  1.4789271264E+00  2.7523263209E+00  6.1715040778E-02  5.7994547484E-02  7.4577874129E-01
  2.7889632107E+04  1.4870787458E+00  2.7507389145E+00  6.2362061613E-02  5.8577543830E-02  7.4652351481E-01
  2.7986622074E+04  1.4952467624E+00  2.7491579298E+00  6.3013584252E-02  5.9164148898E-02  7.4726077351E-01
  2.8083612040E+04  1.5034311524E+00  2.7475833186E+00  6.3669624253E-02  5.9754368678E-02  7.4799058487E-01
  2.8180602007E+04  1.5116578945E+00  2.7460509271E+00  6.4330197175E-02  6.0348267868E-02  7.4871301671E-01
  2.8277591973E+04  1.5199054487E+00  2.7445305416E+00  6.4995318575E-02  6.0945805040E-02  7.4942813708E-01
  2.8374581940E+04  1.5281695300E+00  2.7430161995E+00  6.5665004009E-02  6.1546976473E-02  7.5013601425E-01
  2.8471571906E+04  1.5364501149E+00  2.7415078561E+00  6.6339269035E-02  6.2151787907E-02  7.5083671666E-01
  2.8568561873E+04  1.5447471800E+00  2.7400054675E+00  6.7018129209E-02  6.2760245007E-02  7.5153031286E-01
  2.8665551839E+04  1.5530843317E+00  2.7385443627E+00  6.7701600087E-02  6.3372411656E-02  7.5221687151E-01
  2.8762541806E+04  1.5614417956E+00  2.7370944818E+00  6.8389697225E-02  6.3988245997E-02  7.5289646126E-01
  2.8859531773E+04  1.5698158709E+00  2.7356502456E+00  6.9082436179E-02  6.4607744535E-02  7.5356915079E-01
  2.8956521739E+04  1.5782065346E+00  2.7342116132E+00  6.9779832503E-02  6.5230912684E-02  7.5423500842E-01
  2.9053511706E+04  1.5866137637E+00  2.7327785442E+00  7.0481901753E-02  6.5857755783E-02  7.5489409804E-01
  2.9150501672E+04  1.5950566056E+00  2.7313824191E+00  7.1188659483E-02  6.6488330855E-02  7.5554648052E-01
  2.9247491639E+04  1.6035213495E+00  2.7300002307E+00  7.1900121246E-02  6.7122607194E-02  7.5619221698E-01
  2.9344481605E+04  1.6120027673E+00  2.7286233142E+00  7.2616302598E-02  6.7760575974E-02  7.5683136881E-01
  2.9441471572E+04  1.6205008367E+00  2.7272516324E+00  7.3337219092E-02  6.8402242277E-02  7.5746399760E-01
  2.9538461538E+04  1.6290155352E+00  2.7258851480E+00  7.4062886280E-02  6.9047611112E-02  7.5809016516E-01
  2.9635451505E+04  1.6375599306E+00  2.7245480200E+00  7.4793319716E-02  6.9696726958E-02  7.5870993340E-01
  2.9732441472E+04  1.6461291442E+00  2.7232308734E+00  7.5528534952E-02  7.0349581106E-02  7.5932336435E-01
  2.9829431438E+04  1.6547150726E+00  2.7219186501E+00  7.6268547541E-02  7.1006154216E-02  7.5993052008E-01
  2.9926421405E+04  1.6633176939E+00  2.7206113158E+00  7.7013373034E-02  7.1666451032E-02  7.6053146270E-01
  3.0023411371E+04  1.6719369863E+00  2.7193088366E+00  7.7763659149E-02  7.2331023153E-02  7.6112625428E-01
  3.0120401338E+04  1.6805793352E+00  2.7180250319E+00  7.8520802387E-02  7.3001089352E-02  7.6171495685E-01
  3.0217391304E+04  1.6892497460E+00  2.7167704445E+00  7.9282847793E-02  7.3674965862E-02  7.6229763200E-01
  3.0314381271E+04  1.6979368888E+00  2.7155204538E+00  8.0049811218E-02  7.4352618736E-02  7.6287433513E-01
  3.0411371237E+04  1.7066407422E+00  2.7142750285E+00  8.0821708515E-02  7.5034052516E-02  7.6344512276E-01
  3.0508361204E+04  1.7153612848E+00  2.7130341373E+00  8.1598555535E-02  7.5719271668E-02  7.6401005291E-01
  3.0605351171E+04  1.7240986801E+00  2.7117982631E+00  8.2380368132E-02  7.6408281352E-02  7.6456918318E-01
  3.0702341137E+04  1.7328661215E+00  2.7106039344E+00  8.3167162158E-02  7.7101141656E-02  7.6512253085E-01
  3.0799331104E+04  1.7416502835E+00  2.7094138961E+00  8.3958953466E-02  7.7797801925E-02  7.6567187658E-01
  3.0896321070E+04  1.7504511449E+00  2.7082281195E+00  8.4755757909E-02  7.8498266350E-02  7.6622099449E-01
  3.0993311037E+04  1.7592686851E+00  2.7070465760E+00  8.5557591341E-02  7.9202539047E-02  7.6677011341E-01
  3.1090301003E+04  1.7681028832E+00  2.7058692373E+00  8.6364469614E-02  7.9910624056E-02  7.6731921640E-01
  3.1187290970E+04  1.7769589790E+00  2.7047172610E+00  8.7176408582E-02  8.0622554992E-02  7.6786829407E-01
