#[MATERIAL DEFINITION FOR MC-GPU: interaction mean free path and sampling data from PENELOPE 2006]
#[MATERIAL NAME]
# MetallImplants_31                                             
#[NOMINAL DENSITY (g/cm^3)]
#   2.68210000
#[NUMBER OF DATA VALUES]
#   1495
#[MEAN FREE PATHS (cm) (ie, average distance between interactions)]
#[Energy (eV)     | Rayleigh        | Compton         | Photoelectric   | TOTAL (+pair prod) (cm) | Rayleigh: max cumul prob F^2]
  5.0000000000E+03  2.0849655764E-01  5.7273881378E+00  5.4985631981E-04  5.4835752225E-04  2.0263707619E-01
  5.0969899666E+03  2.1183117537E-01  5.6578750443E+00  5.7439216806E-04  5.7278089121E-04  2.0704492358E-01
  5.1939799331E+03  2.1518588932E-01  5.5909497693E+00  6.0124366711E-04  5.9950414280E-04  2.1142820418E-01
  5.2909698997E+03  2.1856047513E-01  5.5264786440E+00  6.2961881739E-04  6.2773893952E-04  2.1578705878E-01
  5.3879598662E+03  2.2195469412E-01  5.4643367929E+00  6.5926033804E-04  6.5722891238E-04  2.2012168304E-01
  5.4849498328E+03  2.2536829442E-01  5.4044073954E+00  6.8973103283E-04  6.8753909939E-04  2.2443223301E-01
  5.5819397993E+03  2.2880101212E-01  5.3465810202E+00  7.2103934938E-04  7.1867760107E-04  2.2871884669E-01
  5.6789297659E+03  2.3225257232E-01  5.2907550252E+00  7.5319260170E-04  7.5065138448E-04  2.3298170951E-01
  5.7759197324E+03  2.3572269011E-01  5.2368330155E+00  7.8658585305E-04  7.8385246973E-04  2.3722105157E-01
  5.8729096990E+03  2.3921107156E-01  5.1847243523E+00  8.2136447020E-04  8.1842464051E-04  2.4143710264E-01
  5.9698996656E+03  2.4271741476E-01  5.1343436967E+00  8.5707319334E-04  8.5391534096E-04  2.4563003703E-01
  6.0668896321E+03  2.4624141970E-01  5.0856100421E+00  8.9403309397E-04  8.9064284916E-04  2.4980005316E-01
  6.1638795987E+03  2.4978280462E-01  5.0384454554E+00  9.3210775078E-04  9.2847123341E-04  2.5394738319E-01
  6.2608695652E+03  2.5334130444E-01  4.9927750552E+00  9.7117132800E-04  9.6727517671E-04  2.5807230736E-01
  6.3578595318E+03  2.5691664821E-01  4.9485282149E+00  1.0112335939E-03  1.0070639584E-03  2.6217501093E-01
  6.4548494983E+03  2.6051011426E-01  4.9056607785E+00  1.0523042608E-03  1.0478468178E-03  2.6625563503E-01
  6.5518394649E+03  2.6412183019E-01  4.8641151276E+00  1.0943929863E-03  1.0896329150E-03  2.7031434845E-01
  6.6488294314E+03  2.6774993035E-01  4.8238090053E+00  1.1375093745E-03  1.1324313106E-03  2.7435134548E-01
  6.7458193980E+03  2.7139411119E-01  4.7846862409E+00  1.1816629767E-03  1.1762510273E-03  2.7836684386E-01
  6.8428093645E+03  2.7505406395E-01  4.7466937137E+00  1.2268632931E-03  1.2211010259E-03  2.8236108304E-01
  6.9397993311E+03  2.7872947534E-01  4.7097811422E+00  1.2731197730E-03  1.2669902060E-03  2.8633431269E-01
  7.0367892977E+03  2.8242020686E-01  4.6739032811E+00  1.3205780753E-03  1.3140623284E-03  2.9028668671E-01
  7.1337792642E+03  2.8613135558E-01  4.6390853967E+00  1.3693489801E-03  1.3624266104E-03  2.9421831757E-01
  7.2307692308E+03  2.8985751758E-01  4.6052136937E+00  1.4192258281E-03  1.4118777585E-03  2.9812933785E-01
  7.3277591973E+03  2.9359843046E-01  4.5722466914E+00  1.4702183584E-03  1.4624248984E-03  3.0201989772E-01
  7.4247491639E+03  2.9735382069E-01  4.5401450831E+00  1.5223362644E-03  1.5140770981E-03  3.0589016362E-01
  7.5217391304E+03  3.0112665092E-01  4.5089106205E+00  1.5755891947E-03  1.5668434615E-03  3.0974031704E-01
  7.6187290970E+03  3.0491785519E-01  4.4785200789E+00  1.6299867536E-03  1.6207329919E-03  3.1357053789E-01
  7.7157190635E+03  3.0872311460E-01  4.4488904959E+00  1.6855385022E-03  1.6757544813E-03  3.1738092849E-01
  7.8127090301E+03  3.1254211563E-01  4.4199898468E+00  1.7422539591E-03  1.7319167758E-03  3.2117157765E-01
  7.9096989967E+03  3.1637975686E-01  4.3918457131E+00  1.8001426007E-03  1.7892288434E-03  3.2494258827E-01
  8.0066889632E+03  3.2023452929E-01  4.3644129883E+00  1.8593119174E-03  1.8477962463E-03  3.2869407600E-01
  8.1036789298E+03  3.2410253665E-01  4.3376235923E+00  1.9210374182E-03  1.9088776198E-03  3.3242616831E-01
  8.2006688963E+03  3.2798510914E-01  4.3114687314E+00  1.9840410033E-03  1.9712096944E-03  3.3613899959E-01
  8.2976588629E+03  3.3188903634E-01  4.2859953176E+00  2.0483335507E-03  2.0348028134E-03  3.3983265750E-01
  8.3946488294E+03  3.3580571609E-01  4.2610912371E+00  2.1139259017E-03  2.0996666753E-03  3.4350720236E-01
  8.4916387960E+03  3.3973514513E-01  4.2367372220E+00  2.1808288610E-03  2.1658112438E-03  3.4716270516E-01
  8.5886287625E+03  3.4368792613E-01  4.2130171651E+00  2.2490531974E-03  2.2332469095E-03  3.5079924718E-01
  8.6856187291E+03  3.4765289745E-01  4.1898017992E+00  2.3186096444E-03  2.3019830718E-03  3.5441691921E-01
  8.7826086957E+03  3.5163106464E-01  4.1670842191E+00  2.3895089010E-03  2.3720295936E-03  3.5801583287E-01
  8.8795986622E+03  3.5563219037E-01  4.1449371774E+00  2.4617616314E-03  2.4433967372E-03  3.6159607777E-01
  8.9765886288E+03  3.5964485426E-01  4.1232380545E+00  2.5353784663E-03  2.5160936840E-03  3.6515766717E-01
  9.0735785953E+03  3.6367355373E-01  4.1020126024E+00  2.6105590330E-03  2.5903164546E-03  3.6870062064E-01
  9.1705685619E+03  3.6772234610E-01  4.0812798505E+00  2.6871954576E-03  2.6659581815E-03  3.7222496710E-01
  9.2675585284E+03  3.7178196964E-01  4.0609449086E+00  2.7652397653E-03  2.7429703172E-03  3.7573074425E-01
  9.3645484950E+03  3.7586311006E-01  4.0410841683E+00  2.8447026796E-03  2.8213632358E-03  3.7921799806E-01
  9.4615384615E+03  3.7995887100E-01  4.0216252675E+00  2.9255948929E-03  2.9011462570E-03  3.8268678219E-01
  9.5585284281E+03  3.8406813669E-01  4.0025472494E+00  3.0079270666E-03  2.9823289708E-03  3.8613715755E-01
  9.6555183946E+03  3.8820024672E-01  3.9839108479E+00  3.0917098319E-03  3.0649216112E-03  3.8956919183E-01
  9.7525083612E+03  3.9234206427E-01  3.9656012393E+00  3.1769537898E-03  3.1489328972E-03  3.9298295885E-01
  9.8494983278E+03  3.9650698771E-01  3.9477095832E+00  3.2636695117E-03  3.2343732813E-03  3.9637849693E-01
  9.9464882943E+03  4.0068496463E-01  3.9301481487E+00  3.3518675398E-03  3.3212515643E-03  3.9975579425E-01
  1.0043478261E+04  4.0487993304E-01  3.9129361149E+00  3.4424566091E-03  3.4104590799E-03  4.0311484894E-01
  1.0140468227E+04  4.0909421002E-01  3.8960788481E+00  3.5357179374E-03  3.5022701955E-03  4.0645566651E-01
  1.0237458194E+04  4.1331999403E-01  3.8795118266E+00  3.6305819010E-03  3.5956331233E-03  4.0977825941E-01
  1.0334448161E+04  4.1757080061E-01  3.8633184587E+00  3.7270604651E-03  3.6905596943E-03  4.1308264670E-01
  1.0431438127E+04  4.2182950167E-01  3.8473729790E+00  3.8251655700E-03  3.7870591770E-03  4.1636885363E-01
  1.0528428094E+04  4.2611581630E-01  3.8317978949E+00  3.9249091319E-03  3.8851439178E-03  4.1963691137E-01
  1.0625418060E+04  4.3041082630E-01  3.8164600004E+00  4.0263030423E-03  3.9848228626E-03  4.2288685661E-01
  1.0722408027E+04  4.3473028417E-01  3.8014526877E+00  4.1293591692E-03  4.0861080125E-03  4.2611872759E-01
  1.0819397993E+04  4.3906172938E-01  3.7866886547E+00  4.2340893567E-03  4.1890087303E-03  4.2933252619E-01
  1.0916387960E+04  4.4341517164E-01  3.7722225649E+00  4.3405054255E-03  4.2935364718E-03  4.3252824121E-01
  1.1013377926E+04  4.4778312221E-01  3.7580007839E+00  4.4486191733E-03  4.3997009410E-03  4.3570586852E-01
  1.1110367893E+04  4.5217138596E-01  3.7440511042E+00  4.5584423748E-03  4.5075131421E-03  4.3886540999E-01
  1.1207357860E+04  4.5657585508E-01  3.7303419076E+00  4.6699867821E-03  4.6169830100E-03  4.4200687318E-01
  1.1304347826E+04  4.6099977358E-01  3.7168854200E+00  4.7832641249E-03  4.7281212274E-03  4.4513027106E-01
  1.1401337793E+04  4.6544071656E-01  3.7036609270E+00  4.8982861106E-03  4.8409378113E-03  4.4823562176E-01
  1.1498327759E+04  4.6990111938E-01  3.6906758810E+00  5.0150644248E-03  4.9554432946E-03  4.5132294829E-01
  1.1595317726E+04  4.7437843269E-01  3.6779098568E+00  5.1336107314E-03  5.0716475820E-03  4.5439227359E-01
  1.1692307692E+04  4.7887614587E-01  3.6653758538E+00  5.2539366728E-03  5.1895612766E-03  4.5744359471E-01
  1.1789297659E+04  4.8338966613E-01  3.6530435823E+00  5.3760538700E-03  5.3091939264E-03  4.6047690460E-01
  1.1886287625E+04  4.8792551228E-01  3.6409414711E+00  5.4999739230E-03  5.4305564768E-03  4.6349220181E-01
  1.1983277592E+04  4.9247501522E-01  3.6290196391E+00  5.6257084111E-03  5.5536578187E-03  4.6648949014E-01
  1.2080267559E+04  4.9704981359E-01  3.6173314210E+00  5.7532688928E-03  5.6785095717E-03  4.6946877833E-01
  1.2177257525E+04  5.0163501294E-01  3.6057980130E+00  5.8826669062E-03  5.8051196057E-03  4.7243007988E-01
  1.2274247492E+04  5.0624957947E-01  3.5945067553E+00  6.0139139693E-03  5.9335006132E-03  4.7537341284E-01
  1.2371237458E+04  5.1087012587E-01  3.5833409576E+00  6.1470215797E-03  6.0636590093E-03  4.7829879830E-01
  1.2468227425E+04  5.1552527411E-01  3.5724307155E+00  6.2820012157E-03  6.1956090313E-03  4.8120624268E-01
  1.2565217391E+04  5.2018627590E-01  3.5616378496E+00  6.4205476034E-03  6.3309926688E-03  4.8409574436E-01
  1.2662207358E+04  5.2487732511E-01  3.5510685880E+00  6.5618838584E-03  6.4690554397E-03  4.8696730660E-01
  1.2759197324E+04  5.2957998388E-01  3.5406356702E+00  6.7052171853E-03  6.6090217098E-03  4.8982093741E-01
  1.2856187291E+04  5.3430614795E-01  3.5303875688E+00  6.8505602998E-03  6.7509043307E-03  4.9265664932E-01
  1.2953177258E+04  5.3905136167E-01  3.5203008141E+00  6.9979259012E-03  6.8947133853E-03  4.9547445925E-01
  1.3050167224E+04  5.4381213137E-01  3.5103566219E+00  7.1473266728E-03  7.0404590133E-03  4.9827438829E-01
  1.3147157191E+04  5.4860080007E-01  3.5006030091E+00  7.2987752819E-03  7.1881542466E-03  5.0105645851E-01
  1.3244147157E+04  5.5339597414E-01  3.4909478902E+00  7.4522843801E-03  7.3378057712E-03  5.0382067886E-01
  1.3341137124E+04  5.5822861160E-01  3.4815135509E+00  7.6078666032E-03  7.4894302210E-03  5.0656705728E-01
  1.3438127090E+04  5.6306837502E-01  3.4721743088E+00  7.7655345713E-03  7.6430323235E-03  5.0929560621E-01
  1.3535117057E+04  5.6793502801E-01  3.4630051968E+00  7.9253008893E-03  7.7986266088E-03  5.1200634240E-01
  1.3632107023E+04  5.7282028079E-01  3.4539704567E+00  8.0871781467E-03  7.9562219788E-03  5.1469928673E-01
  1.3729096990E+04  5.7772019833E-01  3.4450520666E+00  8.2511789179E-03  8.1158280800E-03  5.1737446403E-01
  1.3826086957E+04  5.8265183868E-01  3.4363110521E+00  8.4173157622E-03  8.2774591287E-03  5.2003190591E-01
  1.3923076923E+04  5.8759066136E-01  3.4276530883E+00  8.5856012240E-03  8.4411201491E-03  5.2267165162E-01
  1.4020066890E+04  5.9256311107E-01  3.4191720462E+00  8.7560478328E-03  8.6068275310E-03  5.2529371161E-01
  1.4117056856E+04  5.9754946282E-01  3.4107934999E+00  8.9286681037E-03  8.7745871499E-03  5.2789809641E-01
  1.4214046823E+04  6.0255407344E-01  3.4025305435E+00  9.1034745369E-03  8.9444103053E-03  5.3048482094E-01
  1.4311036789E+04  6.0758885172E-01  3.3944219374E+00  9.2804796184E-03  9.1163102412E-03  5.3305390437E-01
  1.4408026756E+04  6.1263126603E-01  3.3863872289E+00  9.4596958199E-03  9.2902916266E-03  5.3560536994E-01
  1.4505016722E+04  6.1770871213E-01  3.3785170591E+00  9.6411355986E-03  9.4663716236E-03  5.3813924480E-01
  1.4602006689E+04  6.2280070011E-01  3.3707396959E+00  9.8248113979E-03  9.6445552029E-03  5.4065555991E-01
  1.4698996656E+04  6.2790883682E-01  3.3630585044E+00  1.0010735647E-02  9.8248528480E-03  5.4315434985E-01
  1.4795986622E+04  6.3305129447E-01  3.3555301149E+00  1.0198920762E-02  1.0007279654E-02  5.4563565270E-01
  1.4892976589E+04  6.3820185557E-01  3.3480676022E+00  1.0389379143E-02  1.0191838484E-02  5.4809950992E-01
  1.4989966555E+04  6.4338274387E-01  3.3407394204E+00  1.0582123180E-02  1.0378545600E-02  5.5054596616E-01
  1.5086956522E+04  6.4858492467E-01  3.3335146994E+00  1.0779937993E-02  1.0570074353E-02  5.5297506921E-01
  1.5183946488E+04  6.5379542793E-01  3.3263517501E+00  1.0980472251E-02  1.0764155544E-02  5.5538686266E-01
  1.5280936455E+04  6.5904931564E-01  3.3193545400E+00  1.1183424381E-02  1.0960507589E-02  5.5778137282E-01
  1.5377926421E+04  6.6431256924E-01  3.3124185129E+00  1.1388807910E-02  1.1159131074E-02  5.6015862789E-01
  1.5474916388E+04  6.6959450699E-01  3.3055697195E+00  1.1596636357E-02  1.1360039617E-02  5.6251865991E-01
  1.5571906355E+04  6.7491136541E-01  3.2988529682E+00  1.1806923230E-02  1.1563249318E-02  5.6486150466E-01
  1.5668896321E+04  6.8023703523E-01  3.2921914441E+00  1.2019682024E-02  1.1768762469E-02  5.6718720149E-01
  1.5765886288E+04  6.8559118924E-01  3.2856388077E+00  1.2234926226E-02  1.1976596277E-02  5.6949579318E-01
  1.5862876254E+04  6.9097158389E-01  3.2791866665E+00  1.2452669312E-02  1.2186760804E-02  5.7178732581E-01
  1.5959866221E+04  6.9636101979E-01  3.2727864101E+00  1.2672924748E-02  1.2399260690E-02  5.7406184865E-01
  1.6056856187E+04  7.0178728304E-01  3.2665109048E+00  1.2895705990E-02  1.2614116366E-02  5.7631941402E-01
  1.6153846154E+04  7.0723256652E-01  3.2603107805E+00  1.3121026483E-02  1.2831332157E-02  5.7856007717E-01
  1.6250836120E+04  7.1268712499E-01  3.2541594344E+00  1.3348899662E-02  1.3050914878E-02  5.8078389615E-01
  1.6347826087E+04  7.1818527913E-01  3.2481432570E+00  1.3579338953E-02  1.3272887936E-02  5.8299093095E-01
  1.6444816054E+04  7.2369681054E-01  3.2421833814E+00  1.3812357772E-02  1.3497250459E-02  5.8518123140E-01
  1.6541806020E+04  7.2921821619E-01  3.2362702789E+00  1.4047969524E-02  1.3724011290E-02  5.8735484107E-01
  1.6638795987E+04  7.3478756677E-01  3.2304958648E+00  1.4286187606E-02  1.3953195996E-02  5.8951180681E-01
  1.6735785953E+04  7.4036671171E-01  3.2247652265E+00  1.4527025402E-02  1.4184799748E-02  5.9165217874E-01
  1.6832775920E+04  7.4595834005E-01  3.2190841963E+00  1.4770496291E-02  1.4418833708E-02  5.9377601011E-01
  1.6929765886E+04  7.5159643022E-01  3.2135312610E+00  1.5016613639E-02  1.4655322487E-02  5.9588335717E-01
  1.7026755853E+04  7.5724456073E-01  3.2080195446E+00  1.5265390803E-02  1.4894260995E-02  5.9797427905E-01
  1.7123745819E+04  7.6290584135E-01  3.2025556116E+00  1.5516841132E-02  1.5135660519E-02  6.0004883764E-01
  1.7220735786E+04  7.6861404512E-01  3.1972143098E+00  1.5770977964E-02  1.5379546261E-02  6.0210709747E-01
  1.7317725753E+04  7.7433253960E-01  3.1919118402E+00  1.6027814628E-02  1.5625912080E-02  6.0414912561E-01
  1.7414715719E+04  7.8006277620E-01  3.1866509343E+00  1.6287364444E-02  1.5874768435E-02  6.0617499155E-01
  1.7511705686E+04  7.8584244792E-01  3.1815120143E+00  1.6549963358E-02  1.6126449381E-02  6.0818476433E-01
  1.7608695652E+04  7.9163266496E-01  3.1764096968E+00  1.6817692475E-02  1.6382908534E-02  6.1017850266E-01
  1.7705685619E+04  7.9743338833E-01  3.1713435218E+00  1.7088246276E-02  1.6641952573E-02  6.1215626457E-01
  1.7802675585E+04  8.0328326118E-01  3.1663932455E+00  1.7361638845E-02  1.6903611127E-02  6.1411811102E-01
  1.7899665552E+04  8.0914629682E-01  3.1614824264E+00  1.7637884258E-02  1.7167877027E-02  6.1606410570E-01
  1.7996655518E+04  8.1502009562E-01  3.1566056998E+00  1.7916996584E-02  1.7434759244E-02  6.1799431495E-01
  1.8093645485E+04  8.2093738001E-01  3.1518284879E+00  1.8198989885E-02  1.7704285177E-02  6.1990880760E-01
  1.8190635452E+04  8.2687416785E-01  3.1471009647E+00  1.8483878215E-02  1.7976452884E-02  6.2180765490E-01
  1.8287625418E+04  8.3282197634E-01  3.1424056157E+00  1.8771675623E-02  1.8251267985E-02  6.2369093041E-01
  1.8384615385E+04  8.3880530004E-01  3.1377898579E+00  1.9062396148E-02  1.8528754071E-02  6.2555870983E-01
  1.8481605351E+04  8.4481676129E-01  3.1332379045E+00  1.9356053824E-02  1.8808917589E-02  6.2741107097E-01
  1.8578595318E+04  8.5083950141E-01  3.1287163287E+00  1.9652662678E-02  1.9091759220E-02  6.2924809069E-01
  1.8675585284E+04  8.5688741402E-01  3.1242511006E+00  1.9952236729E-02  1.9377296926E-02  6.3106983709E-01
  1.8772575251E+04  8.6297445946E-01  3.1198674327E+00  2.0254789988E-02  1.9665549193E-02  6.3287637833E-01
  1.8869565217E+04  8.6907304277E-01  3.1155124584E+00  2.0560336463E-02  1.9956509935E-02  6.3466778501E-01
  1.8966555184E+04  8.7518401534E-01  3.1111874740E+00  2.0868890152E-02  2.0250189389E-02  6.3644413009E-01
  1.9063545151E+04  8.8134754530E-01  3.1069652173E+00  2.1180465047E-02  2.0546622269E-02  6.3820548874E-01
  1.9160535117E+04  8.8752287299E-01  3.1027700745E+00  2.1495075132E-02  2.0845793625E-02  6.3995193825E-01
  1.9257525084E+04  8.9370996110E-01  3.0986017355E+00  2.1812734387E-02  2.1147713016E-02  6.4168355793E-01
  1.9354515050E+04  8.9993620178E-01  3.0945083030E+00  2.2133456784E-02  2.1452407863E-02  6.4340042897E-01
  1.9451505017E+04  9.0618916459E-01  3.0904665946E+00  2.2457256288E-02  2.1759880250E-02  6.4510263439E-01
  1.9548494983E+04  9.1245414892E-01  3.0864502286E+00  2.2784146856E-02  2.2070130177E-02  6.4679025811E-01
  1.9645484950E+04  9.1874051128E-01  3.0824750157E+00  2.3114142442E-02  2.2383173442E-02  6.4846337736E-01
  1.9742474916E+04  9.2507198945E-01  3.0785806914E+00  2.3447256990E-02  2.2699036179E-02  6.5012206656E-01
  1.9839464883E+04  9.3141575122E-01  3.0747103360E+00  2.3783504440E-02  2.3017705596E-02  6.5176640219E-01
  1.9936454849E+04  9.3777176019E-01  3.0708636860E+00  2.4122898724E-02  2.3339190934E-02  6.5339646273E-01
  2.0033444816E+04  9.4417134189E-01  3.0670922159E+00  2.4466144023E-02  2.3664169905E-02  6.5501232858E-01
  2.0130434783E+04  9.5059478444E-01  3.0633622366E+00  2.4813907052E-02  2.3993247330E-02  6.5661408195E-01
  2.0227424749E+04  9.5703073793E-01  3.0596546889E+00  2.5164905980E-02  2.4325211205E-02  6.5820180674E-01
  2.0324414716E+04  9.6348718760E-01  3.0559821348E+00  2.5519155186E-02  2.4660077013E-02  6.5977558846E-01
  2.0421404682E+04  9.6999138753E-01  3.0523872525E+00  2.5876669041E-02  2.4997875390E-02  6.6133551415E-01
  2.0518394649E+04  9.7650836508E-01  3.0488136023E+00  2.6237461910E-02  2.5338589523E-02  6.6288167081E-01
  2.0615384615E+04  9.8303808478E-01  3.0452609592E+00  2.6601548156E-02  2.5682228669E-02  6.6441413875E-01
  2.0712374582E+04  9.8960574943E-01  3.0417677477E+00  2.6968942133E-02  2.6028822319E-02  6.6593299724E-01
  2.0809364548E+04  9.9620489037E-01  3.0383230771E+00  2.7339658193E-02  2.6378375260E-02  6.6743832728E-01
  2.0906354515E+04  1.0028170441E+00  3.0348982982E+00  2.7713710681E-02  2.6730882010E-02  6.6893021160E-01
  2.1003344482E+04  1.0094421756E+00  3.0314932047E+00  2.8091113936E-02  2.7086351630E-02  6.7040873448E-01
  2.1100334448E+04  1.0161204430E+00  3.0281666631E+00  2.8471882294E-02  2.7444827302E-02  6.7187398170E-01
  2.1197324415E+04  1.0228161709E+00  3.0248651416E+00  2.8856030084E-02  2.7806288701E-02  6.7332604043E-01
  2.1294314381E+04  1.0295251511E+00  3.0215822669E+00  2.9243571632E-02  2.8170741251E-02  6.7476499912E-01
  2.1391304348E+04  1.0362550127E+00  3.0183287465E+00  2.9634521256E-02  2.8538200606E-02  6.7619094989E-01
  2.1488294314E+04  1.0430354516E+00  3.0151461032E+00  3.0028893271E-02  2.8908702556E-02  6.7760399343E-01
  2.1585284281E+04  1.0498294212E+00  3.0119811261E+00  3.0426701987E-02  2.9282223562E-02  6.7900420845E-01
  2.1682274247E+04  1.0566368875E+00  3.0088336385E+00  3.0827961708E-02  2.9658772348E-02  6.8039167171E-01
  2.1779264214E+04  1.0634747290E+00  3.0057265666E+00  3.1232686734E-02  3.0038373385E-02  6.8176646173E-01
  2.1876254181E+04  1.0703548251E+00  3.0026753753E+00  3.1640891359E-02  3.0421047213E-02  6.8312865867E-01
  2.1973244147E+04  1.0772487002E+00  2.9996407586E+00  3.2052589872E-02  3.0806776203E-02  6.8447834424E-01
  2.2070234114E+04  1.0841563209E+00  2.9966225540E+00  3.2467796559E-02  3.1195568885E-02  6.8581560161E-01
  2.2167224080E+04  1.0911010538E+00  2.9936513171E+00  3.2886525699E-02  3.1587456760E-02  6.8714051529E-01
  2.2264214047E+04  1.0980824746E+00  2.9907257058E+00  3.3308791566E-02  3.1982448770E-02  6.8845317106E-01
  2.2361204013E+04  1.1050779275E+00  2.9878156521E+00  3.3734634726E-02  3.2380555555E-02  6.8975365588E-01
  2.2458193980E+04  1.1120873797E+00  2.9849210065E+00  3.4169130872E-02  3.2786445506E-02  6.9104205779E-01
  2.2555183946E+04  1.1191377460E+00  2.9820756306E+00  3.4607314609E-02  3.3195563573E-02  6.9231846583E-01
  2.2652173913E+04  1.1262221673E+00  2.9792700892E+00  3.5049201175E-02  3.3607912572E-02  6.9358296998E-01
  2.2749163880E+04  1.1333208786E+00  2.9764791573E+00  3.5494805807E-02  3.4023481168E-02  6.9483566104E-01
  2.2846153846E+04  1.1404338477E+00  2.9737026969E+00  3.5944143735E-02  3.4442278142E-02  6.9607663059E-01
  2.2943143813E+04  1.1475884149E+00  2.9709738000E+00  3.6397230189E-02  3.4864342054E-02  6.9730597090E-01
  2.3040133779E+04  1.1547775205E+00  2.9682831526E+00  3.6854080396E-02  3.5289674966E-02  6.9852377487E-01
  2.3137123746E+04  1.1619811789E+00  2.9656062295E+00  3.7314709580E-02  3.5718264035E-02  6.9973013357E-01
  2.3234113712E+04  1.1691993583E+00  2.9629429035E+00  3.7779132960E-02  3.6150117831E-02  7.0092512685E-01
  2.3331103679E+04  1.1764565144E+00  2.9603216524E+00  3.8247365756E-02  3.6585272911E-02  7.0210883231E-01
  2.3428093645E+04  1.1837519958E+00  2.9577410312E+00  3.8719423183E-02  3.7023738069E-02  7.0328132888E-01
  2.3525083612E+04  1.1910622976E+00  2.9551733072E+00  3.9195320455E-02  3.7465495172E-02  7.0444269668E-01
  2.3622073579E+04  1.1983873885E+00  2.9526183631E+00  3.9675072780E-02  3.7910552575E-02  7.0559301700E-01
  2.3719063545E+04  1.2057453368E+00  2.9500964346E+00  4.0158695366E-02  3.8358940332E-02  7.0673237217E-01
  2.3816053512E+04  1.2131488927E+00  2.9476212566E+00  4.0646203418E-02  3.8810683036E-02  7.0786084548E-01
  2.3913043478E+04  1.2205675414E+00  2.9451582023E+00  4.1137612138E-02  3.9265752692E-02  7.0897852111E-01
  2.4010033445E+04  1.2280012525E+00  2.9427071635E+00  4.1632936726E-02  3.9724157441E-02  7.1008548406E-01
  2.4107023411E+04  1.2354580066E+00  2.9402767082E+00  4.2132192377E-02  4.0185915455E-02  7.1118182003E-01
  2.4204013378E+04  1.2429713425E+00  2.9379026543E+00  4.2635394286E-02  4.0651077934E-02  7.1226761542E-01
  2.4301003344E+04  1.2505000488E+00  2.9355400000E+00  4.3142557645E-02  4.1119601585E-02  7.1334295719E-01
  2.4397993311E+04  1.2580440955E+00  2.9331886455E+00  4.3653697642E-02  4.1591494332E-02  7.1440793284E-01
  2.4494983278E+04  1.2656034526E+00  2.9308484921E+00  4.4168829463E-02  4.2066764032E-02  7.1546263032E-01
  2.4591973244E+04  1.2732223018E+00  2.9285652505E+00  4.4687968292E-02  4.2545477516E-02  7.1650713798E-01
  2.4688963211E+04  1.2808627828E+00  2.9262989671E+00  4.5211129309E-02  4.3027593489E-02  7.1754154420E-01
  2.4785953177E+04  1.2885188872E+00  2.9240433127E+00  4.5738327694E-02  4.3513111765E-02  7.1856593073E-01
  2.4882943144E+04  1.2961905856E+00  2.9217981963E+00  4.6269578621E-02  4.4002039980E-02  7.1958037312E-01
  2.4979933110E+04  1.3039043724E+00  2.9195901932E+00  4.6804897265E-02  4.4494422788E-02  7.2058494758E-01
  2.5076923077E+04  1.3116580184E+00  2.9174164860E+00  4.7344805311E-02  4.4990723266E-02  7.2157973127E-01
  2.5173913043E+04  1.3194275735E+00  2.9152527790E+00  4.7888954465E-02  4.5490586830E-02  7.2256480210E-01
  2.5270903010E+04  1.3272130087E+00  2.9130989877E+00  4.8437229111E-02  4.5993902678E-02  7.2354023878E-01
  2.5367892977E+04  1.3350188713E+00  2.9109597041E+00  4.8989644514E-02  4.6500684966E-02  7.2450612066E-01
  2.5464882943E+04  1.3428848434E+00  2.9088750591E+00  4.9546215935E-02  4.7011000464E-02  7.2546252767E-01
  2.5561872910E+04  1.3507669950E+00  2.9067998233E+00  5.0106958633E-02  4.7524792509E-02  7.2640954032E-01
  2.5658862876E+04  1.3586652977E+00  2.9047339189E+00  5.0671887865E-02  4.8042068351E-02  7.2734723956E-01
  2.5755852843E+04  1.3665797234E+00  2.9026772687E+00  5.1241018886E-02  4.8562835175E-02  7.2827570674E-01
  2.5852842809E+04  1.3745372432E+00  2.9006582870E+00  5.1814366947E-02  4.9087142692E-02  7.2919502358E-01
  2.5949832776E+04  1.3825301171E+00  2.8986682614E+00  5.2391947299E-02  4.9614987074E-02  7.3010527207E-01
  2.6046822742E+04  1.3905393907E+00  2.8966870175E+00  5.2973775190E-02  5.0146345814E-02  7.3100653445E-01
  2.6143812709E+04  1.3985650363E+00  2.8947144841E+00  5.3559865865E-02  5.0681225867E-02  7.3189889313E-01
  2.6240802676E+04  1.4066071176E+00  2.8927506912E+00  5.4150234567E-02  5.1219634273E-02  7.3278242823E-01
  2.6337792642E+04  1.4147086977E+00  2.8908427861E+00  5.4744896537E-02  5.1761650681E-02  7.3365721232E-01
  2.6434782609E+04  1.4228269032E+00  2.8889431454E+00  5.5343867015E-02  5.2307211036E-02  7.3452331709E-01
  2.6531772575E+04  1.4309617070E+00  2.8870517033E+00  5.5947161236E-02  5.2856322059E-02  7.3538081489E-01
  2.6628762542E+04  1.4391130823E+00  2.8851683946E+00  5.6554794435E-02  5.3408990402E-02  7.3622977864E-01
  2.6725752508E+04  1.4472946393E+00  2.8833088669E+00  5.7166781844E-02  5.3965247117E-02  7.3707028179E-01
  2.6822742475E+04  1.4555196003E+00  2.8814879298E+00  5.7783138693E-02  5.4525123539E-02  7.3790239824E-01
  2.6919732441E+04  1.4637613630E+00  2.8796747090E+00  5.8403880210E-02  5.5088578989E-02  7.3872620228E-01
  2.7016722408E+04  1.4720199011E+00  2.8778691443E+00  5.9029021620E-02  5.5655619882E-02  7.3954176855E-01
  2.7113712375E+04  1.4802951882E+00  2.8760711759E+00  5.9658578146E-02  5.6226252568E-02  7.4034917196E-01
  2.7210702341E+04  1.4886094458E+00  2.8743077133E+00  6.0292565011E-02  5.6800526248E-02  7.4114848768E-01
  2.7307692308E+04  1.4969558330E+00  2.8725699890E+00  6.0930997432E-02  5.7378435218E-02  7.4193979103E-01
  2.7404682274E+04  1.5053191764E+00  2.8708394707E+00  6.1575285658E-02  5.7961192816E-02  7.4272315747E-01
  2.7501672241E+04  1.5136994502E+00  2.8691161032E+00  6.2230012443E-02  5.8552845788E-02  7.4349866258E-01
  2.7598662207E+04  1.5220966289E+00  2.8673998319E+00  6.2889359138E-02  5.9148226385E-02  7.4426638174E-01
  2.7695652174E+04  1.5305371954E+00  2.8657246916E+00  6.3553341933E-02  5.9747396314E-02  7.4502638584E-01
  2.7792642140E+04  1.5390028545E+00  2.8640666561E+00  6.4221977019E-02  6.0350325312E-02  7.4577874129E-01
  2.7889632107E+04  1.5474856021E+00  2.8624153510E+00  6.4895280588E-02  6.0957003315E-02  7.4652351481E-01
  2.7986622074E+04  1.5559854130E+00  2.8607707257E+00  6.5573268829E-02  6.1567436632E-02  7.4726077351E-01
  2.8083612040E+04  1.5645022623E+00  2.8591327302E+00  6.6255957933E-02  6.2181631493E-02  7.4799058487E-01
  2.8180602007E+04  1.5730631842E+00  2.8575385933E+00  6.6943364090E-02  6.2799655191E-02  7.4871301671E-01
  2.8277591973E+04  1.5816457636E+00  2.8559569357E+00  6.7635503489E-02  6.3421464643E-02  7.4942813708E-01
  2.8374581940E+04  1.5902455414E+00  2.8543815648E+00  6.8332392319E-02  6.4047055983E-02  7.5013601425E-01
  2.8471571906E+04  1.5988624933E+00  2.8528124342E+00  6.9034046769E-02  6.4676435183E-02  7.5083671666E-01
  2.8568561873E+04  1.6074965947E+00  2.8512494980E+00  6.9740483028E-02  6.5309608139E-02  7.5153031286E-01
  2.8665551839E+04  1.6161724112E+00  2.8497294388E+00  7.0451717282E-02  6.5946641286E-02  7.5221687151E-01
  2.8762541806E+04  1.6248693650E+00  2.8482210450E+00  7.1167765721E-02  6.6587491101E-02  7.5289646126E-01
  2.8859531773E+04  1.6335836048E+00  2.8467185234E+00  7.1888644531E-02  6.7232153954E-02  7.5356915079E-01
  2.8956521739E+04  1.6423151069E+00  2.8452218317E+00  7.2614369900E-02  6.7880635479E-02  7.5423500842E-01
  2.9053511706E+04  1.6510638474E+00  2.8437309277E+00  7.3344958013E-02  6.8532941232E-02  7.5489409804E-01
  2.9150501672E+04  1.6598496473E+00  2.8422783858E+00  7.4080425058E-02  6.9189130503E-02  7.5554648052E-01
  2.9247491639E+04  1.6686582389E+00  2.8408403235E+00  7.4820787221E-02  6.9849171374E-02  7.5619221698E-01
  2.9344481605E+04  1.6774841817E+00  2.8394077461E+00  7.5566060686E-02  7.0513054673E-02  7.5683136881E-01
  2.9441471572E+04  1.6863274524E+00  2.8379806147E+00  7.6316261641E-02  7.1180785688E-02  7.5746399760E-01
  2.9538461538E+04  1.6951880278E+00  2.8365588908E+00  7.7071406268E-02  7.1852369629E-02  7.5809016516E-01
  2.9635451505E+04  1.7040795064E+00  2.8351676461E+00  7.7831510754E-02  7.2527852741E-02  7.5870993340E-01
  2.9732441472E+04  1.7129968114E+00  2.8337971513E+00  7.8596591282E-02  7.3207225974E-02  7.5932336435E-01
  2.9829431438E+04  1.7219315101E+00  2.8324317792E+00  7.9366664037E-02  7.3890469229E-02  7.5993052008E-01
  2.9926421405E+04  1.7308835798E+00  2.8310714940E+00  8.0141745202E-02  7.4577587445E-02  7.6053146270E-01
  3.0023411371E+04  1.7398529978E+00  2.8297162604E+00  8.0922508806E-02  7.5269154625E-02  7.6112625428E-01
  3.0120401338E+04  1.7488464089E+00  2.8283804205E+00  8.1710408077E-02  7.5966439020E-02  7.6171495685E-01
  3.0217391304E+04  1.7578690219E+00  2.8270749158E+00  8.2503408647E-02  7.6667688448E-02  7.6229763200E-01
  3.0314381271E+04  1.7669090465E+00  2.8257741945E+00  8.3301527012E-02  7.7372867629E-02  7.6287433513E-01
  3.0411371237E+04  1.7759664604E+00  2.8244782237E+00  8.4104779669E-02  7.8081981290E-02  7.6344512276E-01
  3.0508361204E+04  1.7850412415E+00  2.8231869711E+00  8.4913183113E-02  7.8795034077E-02  7.6401005291E-01
  3.0605351171E+04  1.7941335599E+00  2.8219009380E+00  8.5726753840E-02  7.9512031361E-02  7.6456918318E-01
  3.0702341137E+04  1.8032571450E+00  2.8206580627E+00  8.6545508349E-02  8.0233035611E-02  7.6512253085E-01
  3.0799331104E+04  1.8123981297E+00  2.8194196523E+00  8.7369463134E-02  8.0957994170E-02  7.6567187658E-01
  3.0896321070E+04  1.8215564923E+00  2.8181856768E+00  8.8198634694E-02  8.1686911402E-02  7.6622099449E-01
  3.0993311037E+04  1.8307322112E+00  2.8169561064E+00  8.9033039525E-02  8.2419791588E-02  7.6677011341E-01
  3.1090301003E+04  1.8399252646E+00  2.8157309118E+00  8.9872694126E-02  8.3156638932E-02  7.6731921640E-01
  3.1187290970E+04  1.8491411052E+00  2.8145320856E+00  9.0717614993E-02  8.3897488395E-02  7.6786829407E-01
