#[MATERIAL DEFINITION FOR MC-GPU: interaction mean free path and sampling data from PENELOPE 2006]
#[MATERIAL NAME]
# MetallImplants_33                                             
#[NOMINAL DENSITY (g/cm^3)]
#   2.80000000
#[NUMBER OF DATA VALUES]
#   1495
#[MEAN FREE PATHS (cm) (ie, average distance between interactions)]
#[Energy (eV)     | Rayleigh        | Compton         | Photoelectric   | TOTAL (+pair prod) (cm) | Rayleigh: max cumul prob F^2]
  5.0000000000E+03  1.9971736330E-01  5.4923471601E+00  5.2670344120E-04  5.2526780979E-04  2.0263707619E-01
  5.0969899666E+03  2.0291156981E-01  5.4254432113E+00  5.5020615499E-04  5.4866278383E-04  2.0704492358E-01
  5.1939799331E+03  2.0612502634E-01  5.3610394839E+00  5.7592701413E-04  5.7426079949E-04  2.1142820418E-01
  5.2909698997E+03  2.0935751798E-01  5.2990063293E+00  6.0310736790E-04  6.0130671375E-04  2.1578705878E-01
  5.3879598662E+03  2.1260881611E-01  5.2392226575E+00  6.3150076880E-04  6.2955495255E-04  2.2012168304E-01
  5.4849498328E+03  2.1587867945E-01  5.1815752158E+00  6.6068842969E-04  6.5858886883E-04  2.2443223301E-01
  5.5819397993E+03  2.1916685522E-01  5.1259579404E+00  6.9067844249E-04  6.8841622200E-04  2.2871884669E-01
  5.6789297659E+03  2.2247308008E-01  5.0722713714E+00  7.2147781322E-04  7.1904368578E-04  2.3298170951E-01
  5.7759197324E+03  2.2579708113E-01  5.0204221241E+00  7.5346497016E-04  7.5084677353E-04  2.3722105157E-01
  5.8729096990E+03  2.2913857680E-01  4.9703224104E+00  7.8677915911E-04  7.8396321466E-04  2.4143710264E-01
  5.9698996656E+03  2.3249727791E-01  4.9218895946E+00  8.2098428995E-04  8.1795950904E-04  2.4563003703E-01
  6.0668896321E+03  2.3587289707E-01  4.8750452415E+00  8.5638791477E-04  8.5314053307E-04  2.4980005316E-01
  6.1638795987E+03  2.3926516438E-01  4.8297138766E+00  8.9285935656E-04  8.8937607871E-04  2.5394738319E-01
  6.2608695652E+03  2.4267382595E-01  4.7858229699E+00  9.3027807815E-04  9.2654610567E-04  2.5807230736E-01
  6.3578595318E+03  2.4609862221E-01  4.7433041317E+00  9.6865343648E-04  9.6465950253E-04  2.6217501093E-01
  6.4548494983E+03  2.4954077766E-01  4.7021146450E+00  1.0079947349E-03  1.0037251198E-03  2.6625563503E-01
  6.5518394649E+03  2.5300041455E-01  4.6621987142E+00  1.0483112245E-03  1.0437517315E-03  2.7031434845E-01
  6.6488294314E+03  2.5647574578E-01  4.6234767010E+00  1.0896121047E-03  1.0847480170E-03  2.7435134548E-01
  6.7458193980E+03  2.5996648058E-01  4.5858942769E+00  1.1319065249E-03  1.1267226190E-03  2.7836684386E-01
  6.8428093645E+03  2.6347232319E-01  4.5494000808E+00  1.1752035851E-03  1.1696841209E-03  2.8236108304E-01
  6.9397993311E+03  2.6699297350E-01  4.5139455134E+00  1.2195123369E-03  1.2136410478E-03  2.8633431269E-01
  7.0367892977E+03  2.7052829886E-01  4.4794868579E+00  1.2649723056E-03  1.2587311069E-03  2.9028668671E-01
  7.1337792642E+03  2.7408318172E-01  4.4460485329E+00  1.3116896070E-03  1.3050589169E-03  2.9421831757E-01
  7.2307692308E+03  2.7765244568E-01  4.4135206556E+00  1.3594662834E-03  1.3524278285E-03  2.9812933785E-01
  7.3277591973E+03  2.8123583941E-01  4.3818632349E+00  1.4083116639E-03  1.4008465831E-03  3.0201989772E-01
  7.4247491639E+03  2.8483310088E-01  4.3510383804E+00  1.4582350338E-03  1.4503238671E-03  3.0589016362E-01
  7.5217391304E+03  2.8844706801E-01  4.3210478458E+00  1.5092456354E-03  1.5008684007E-03  3.0974031704E-01
  7.6187290970E+03  2.9207863550E-01  4.2918692487E+00  1.5613526685E-03  1.5524888085E-03  3.1357053789E-01
  7.7157190635E+03  2.9572366631E-01  4.2634225438E+00  1.6145652917E-03  1.6051935121E-03  3.1738092849E-01
  7.8127090301E+03  2.9938186012E-01  4.2356768757E+00  1.6688926227E-03  1.6589909850E-03  3.2117157765E-01
  7.9096989967E+03  3.0305790924E-01  4.2086589100E+00  1.7243437390E-03  1.7138898178E-03  3.2494258827E-01
  8.0066889632E+03  3.0675036822E-01  4.1823251440E+00  1.7810216049E-03  1.7699911277E-03  3.2869407600E-01
  8.1036789298E+03  3.1045550484E-01  4.1566099291E+00  1.8401480212E-03  1.8285005530E-03  3.3242616831E-01
  8.2006688963E+03  3.1417459330E-01  4.1315048283E+00  1.9004987053E-03  1.8882080163E-03  3.3613899959E-01
  8.2976588629E+03  3.1791413728E-01  4.1070551341E+00  1.9620840773E-03  1.9491234256E-03  3.3983265750E-01
  8.3946488294E+03  3.2166589683E-01  4.0831527262E+00  2.0249145218E-03  2.0112560708E-03  3.4350720236E-01
  8.4916387960E+03  3.2542986884E-01  4.0597790643E+00  2.0890003886E-03  2.0746154962E-03  3.4716270516E-01
  8.5886287625E+03  3.2921620952E-01  4.0370150942E+00  2.1543519931E-03  2.1392116550E-03  3.5079924718E-01
  8.6856187291E+03  3.3301422723E-01  4.0147361697E+00  2.2209796169E-03  2.2050535507E-03  3.5441691921E-01
  8.7826086957E+03  3.3682488517E-01  3.9929356714E+00  2.2888935083E-03  2.2721506307E-03  3.5801583287E-01
  8.8795986622E+03  3.4065753493E-01  3.9716837790E+00  2.3581038827E-03  2.3405127257E-03  3.6159607777E-01
  8.9765886288E+03  3.4450123701E-01  3.9508622803E+00  2.4286209230E-03  2.4101486301E-03  3.6515766717E-01
  9.0735785953E+03  3.4836029945E-01  3.9304960372E+00  2.5006358508E-03  2.4812461109E-03  3.6870062064E-01
  9.1705685619E+03  3.5223860874E-01  3.9106033804E+00  2.5740453346E-03  2.5537028006E-03  3.7222496710E-01
  9.2675585284E+03  3.5612729313E-01  3.8910928652E+00  2.6488034194E-03  2.6274721954E-03  3.7573074425E-01
  9.3645484950E+03  3.6003658839E-01  3.8720380904E+00  2.7249203775E-03  2.7025642331E-03  3.7921799806E-01
  9.4615384615E+03  3.6395988854E-01  3.8533693213E+00  2.8024064508E-03  2.7789878407E-03  3.8268678219E-01
  9.5585284281E+03  3.6789612480E-01  3.8350663984E+00  2.8812718519E-03  2.8567522043E-03  3.8613715755E-01
  9.6555183946E+03  3.7185424347E-01  3.8171877480E+00  2.9615267643E-03  2.9358671273E-03  3.8956919183E-01
  9.7525083612E+03  3.7582166092E-01  3.7996228617E+00  3.0431813427E-03  3.0163409613E-03  3.9298295885E-01
  9.8494983278E+03  3.7981121133E-01  3.7824594317E+00  3.1262457133E-03  3.0981837189E-03  3.9637849693E-01
  9.9464882943E+03  3.8381326558E-01  3.7656130408E+00  3.2107299744E-03  3.1814038301E-03  3.9975579425E-01
  1.0043478261E+04  3.8783159586E-01  3.7491021386E+00  3.2975045969E-03  3.2668550974E-03  4.0311484894E-01
  1.0140468227E+04  3.9186842167E-01  3.7329318634E+00  3.3868389571E-03  3.3548003358E-03  4.0645566651E-01
  1.0237458194E+04  3.9591626999E-01  3.7170402010E+00  3.4777084702E-03  3.4442320445E-03  4.0977825941E-01
  1.0334448161E+04  3.9998808725E-01  3.7015073295E+00  3.5701245976E-03  3.5351615567E-03  4.1308264670E-01
  1.0431438127E+04  4.0406746658E-01  3.6862123677E+00  3.6640987769E-03  3.6275977502E-03  4.1636885363E-01
  1.0528428094E+04  4.0817329675E-01  3.6712730755E+00  3.7596424224E-03  3.7215524519E-03  4.1963691137E-01
  1.0625418060E+04  4.1228745615E-01  3.6565614211E+00  3.8567669250E-03  3.8170342308E-03  4.2288685661E-01
  1.0722408027E+04  4.1642503399E-01  3.6421671773E+00  3.9554836528E-03  3.9140545829E-03  4.2611872759E-01
  1.0819397993E+04  4.2057409442E-01  3.6280064362E+00  4.0558039513E-03  4.0126224765E-03  4.2933252619E-01
  1.0916387960E+04  4.2474422566E-01  3.6141317437E+00  4.1577391435E-03  4.1127488853E-03  4.3252824121E-01
  1.1013377926E+04  4.2892825431E-01  3.6004915532E+00  4.2613005303E-03  4.2144431046E-03  4.3570586852E-01
  1.1110367893E+04  4.3313174082E-01  3.5871125826E+00  4.3664993905E-03  4.3177156752E-03  4.3886540999E-01
  1.1207357860E+04  4.3735075033E-01  3.5739644464E+00  4.4733469815E-03  4.4225761137E-03  4.4200687318E-01
  1.1304347826E+04  4.4158839026E-01  3.5610589002E+00  4.5818545390E-03  4.5290346531E-03  4.4513027106E-01
  1.1401337793E+04  4.4584233782E-01  3.5483760388E+00  4.6920332776E-03  4.6371008883E-03  4.4823562176E-01
  1.1498327759E+04  4.5011492582E-01  3.5359230295E+00  4.8038943907E-03  4.7467849092E-03  4.5132294829E-01
  1.1595317726E+04  4.5440371226E-01  3.5236802452E+00  4.9174490510E-03  4.8580962032E-03  4.5439227359E-01
  1.1692307692E+04  4.5871203959E-01  3.5116601841E+00  5.0327084107E-03  4.9710449268E-03  4.5744359471E-01
  1.1789297659E+04  4.6303550841E-01  3.4998337384E+00  5.1496836017E-03  5.0856402262E-03  4.6047690460E-01
  1.1886287625E+04  4.6738036303E-01  3.4882282348E+00  5.2683857353E-03  5.2018925860E-03  4.6349220181E-01
  1.1983277592E+04  4.7173829940E-01  3.4767957375E+00  5.3888259034E-03  5.3198105224E-03  4.6648949014E-01
  1.2080267559E+04  4.7612046608E-01  3.4655875081E+00  5.5110151776E-03  5.4394051662E-03  4.6946877833E-01
  1.2177257525E+04  4.8051259579E-01  3.4545278153E+00  5.6349646104E-03  5.5606840555E-03  4.7243007988E-01
  1.2274247492E+04  4.8493285611E-01  3.4437006009E+00  5.7606852346E-03  5.6836593490E-03  4.7537341284E-01
  1.2371237458E+04  4.8935884450E-01  3.4329937238E+00  5.8881880639E-03  5.8083371907E-03  4.7829879830E-01
  1.2468227425E+04  4.9381797775E-01  3.4225322137E+00  6.0174840931E-03  5.9347312196E-03  4.8120624268E-01
  1.2565217391E+04  4.9828271807E-01  3.4121832793E+00  6.1501966883E-03  6.0644142857E-03  4.8409574436E-01
  1.2662207358E+04  5.0277624060E-01  3.4020490043E+00  6.2855816774E-03  6.1966636764E-03  4.8696730660E-01
  1.2759197324E+04  5.0728088385E-01  3.3920455388E+00  6.4228796474E-03  6.3307364162E-03  4.8982093741E-01
  1.2856187291E+04  5.1180804265E-01  3.3822194536E+00  6.5621027786E-03  6.4666448161E-03  4.9265664932E-01
  1.2953177258E+04  5.1635344898E-01  3.3725482018E+00  6.7032632355E-03  6.6043985341E-03  4.9547445925E-01
  1.3050167224E+04  5.2091375627E-01  3.3630137324E+00  6.8463731675E-03  6.7440072829E-03  4.9827438829E-01
  1.3147157191E+04  5.2550078781E-01  3.3536621735E+00  6.9914447085E-03  6.8854835463E-03  5.0105645851E-01
  1.3244147157E+04  5.3009405080E-01  3.3444050688E+00  7.1384899771E-03  7.0288337278E-03  5.0382067886E-01
  1.3341137124E+04  5.3472319971E-01  3.3353598696E+00  7.2875210773E-03  7.1740737621E-03  5.0656705728E-01
  1.3438127090E+04  5.3935917452E-01  3.3264058660E+00  7.4385500977E-03  7.3212081766E-03  5.0929560621E-01
  1.3535117057E+04  5.4402090666E-01  3.3176151127E+00  7.5915891126E-03  7.4702508901E-03  5.1200634240E-01
  1.3632107023E+04  5.4870045540E-01  3.3089532732E+00  7.7466501812E-03  7.6212104298E-03  5.1469928673E-01
  1.3729096990E+04  5.5339405141E-01  3.3004030384E+00  7.9037453485E-03  7.7740960354E-03  5.1737446403E-01
  1.3826086957E+04  5.5811803448E-01  3.2920230014E+00  8.0628866449E-03  7.9289213254E-03  5.2003190591E-01
  1.3923076923E+04  5.6284889744E-01  3.2837226006E+00  8.2240860867E-03  8.0856911117E-03  5.2267165162E-01
  1.4020066890E+04  5.6761197150E-01  3.2755919492E+00  8.3873556759E-03  8.2444210948E-03  5.2529371161E-01
  1.4117056856E+04  5.7238836223E-01  3.2675596025E+00  8.5527074003E-03  8.4051169021E-03  5.2789809641E-01
  1.4214046823E+04  5.7718224299E-01  3.2596381255E+00  8.7201532341E-03  8.5677893575E-03  5.3048482094E-01
  1.4311036789E+04  5.8200502114E-01  3.2518647209E+00  8.8897051374E-03  8.7324511478E-03  5.3305390437E-01
  1.4408026756E+04  5.8683511380E-01  3.2441621716E+00  9.0613750566E-03  8.8991067445E-03  5.3560536994E-01
  1.4505016722E+04  5.9169876315E-01  3.2366174607E+00  9.2351749247E-03  9.0677725881E-03  5.3813924480E-01
  1.4602006689E+04  5.9657634206E-01  3.2291617521E+00  9.4111166609E-03  9.2384534392E-03  5.4065555991E-01
  1.4698996656E+04  6.0146938973E-01  3.2217982716E+00  9.5892121712E-03  9.4111593400E-03  5.4315434985E-01
  1.4795986622E+04  6.0639531317E-01  3.2145813549E+00  9.7694733482E-03  9.5859047506E-03  5.4563565270E-01
  1.4892976589E+04  6.1132899887E-01  3.2074276001E+00  9.9519120715E-03  9.7626924125E-03  5.4809950992E-01
  1.4989966555E+04  6.1629173476E-01  3.2004026770E+00  1.0136540207E-02  9.9415379041E-03  5.5054596616E-01
  1.5086956522E+04  6.2127486660E-01  3.1934769716E+00  1.0326025604E-02  1.0125002010E-02  5.5297506921E-01
  1.5183946488E+04  6.2626597045E-01  3.1866104909E+00  1.0518115937E-02  1.0310911079E-02  5.5538686266E-01
  1.5280936455E+04  6.3129863196E-01  3.1799029646E+00  1.0712522333E-02  1.0498995385E-02  5.5778137282E-01
  1.5377926421E+04  6.3634026499E-01  3.1732540987E+00  1.0909257748E-02  1.0689255489E-02  5.6015862789E-01
  1.5474916388E+04  6.4139979543E-01  3.1666888809E+00  1.1108335134E-02  1.0881704435E-02  5.6251865991E-01
  1.5571906355E+04  6.4649277613E-01  3.1602502907E+00  1.1309767426E-02  1.1076357644E-02  5.6486150466E-01
  1.5668896321E+04  6.5159419721E-01  3.1538646486E+00  1.1513567555E-02  1.1273217314E-02  5.6718720149E-01
  1.5765886288E+04  6.5672290309E-01  3.1475834227E+00  1.1719748439E-02  1.1472299925E-02  5.6949579318E-01
  1.5862876254E+04  6.6187674470E-01  3.1413985631E+00  1.1928322986E-02  1.1673615118E-02  5.7178732581E-01
  1.5959866221E+04  6.6703924685E-01  3.1352634466E+00  1.2139304095E-02  1.1877167336E-02  5.7406184865E-01
  1.6056856187E+04  6.7223702566E-01  3.1292479577E+00  1.2352704655E-02  1.2082976148E-02  5.7631941402E-01
  1.6153846154E+04  6.7745302380E-01  3.1233047468E+00  1.2568537546E-02  1.2291045700E-02  5.7856007717E-01
  1.6250836120E+04  6.8267790640E-01  3.1174082996E+00  1.2786815637E-02  1.2501382519E-02  5.8078389615E-01
  1.6347826087E+04  6.8794454898E-01  3.1116414673E+00  1.3007551788E-02  1.2714009027E-02  5.8299093095E-01
  1.6444816054E+04  6.9322400555E-01  3.1059286143E+00  1.3230758850E-02  1.2928924386E-02  5.8518123140E-01
  1.6541806020E+04  6.9851292059E-01  3.1002606025E+00  1.3456449665E-02  1.3146137069E-02  5.8735484107E-01
  1.6638795987E+04  7.0384776172E-01  3.0947255763E+00  1.3684637063E-02  1.3365671567E-02  5.8951180681E-01
  1.6735785953E+04  7.0919198481E-01  3.0892325171E+00  1.3915333869E-02  1.3587523253E-02  5.9165217874E-01
  1.6832775920E+04  7.1454816566E-01  3.0837870174E+00  1.4148552894E-02  1.3811702818E-02  5.9377601011E-01
  1.6929765886E+04  7.1994885196E-01  3.0784643403E+00  1.4384306943E-02  1.4038233839E-02  5.9588335717E-01
  1.7026755853E+04  7.2535915584E-01  3.0731811782E+00  1.4622608812E-02  1.4267111439E-02  5.9797427905E-01
  1.7123745819E+04  7.3078205610E-01  3.0679438259E+00  1.4863471286E-02  1.4498346430E-02  6.0004883764E-01
  1.7220735786E+04  7.3624990372E-01  3.0628240525E+00  1.5106907142E-02  1.4731962954E-02  6.0210709747E-01
  1.7317725753E+04  7.4172760873E-01  3.0577415058E+00  1.5352929148E-02  1.4967955126E-02  6.0414912561E-01
  1.7414715719E+04  7.4721656145E-01  3.0526988047E+00  1.5601550063E-02  1.5206332967E-02  6.0617499155E-01
  1.7511705686E+04  7.5275286770E-01  3.0477730604E+00  1.5853091686E-02  1.5447416465E-02  6.0818476433E-01
  1.7608695652E+04  7.5829927524E-01  3.0428824049E+00  1.6109547495E-02  1.5693076976E-02  6.1017850266E-01
  1.7705685619E+04  7.6385574673E-01  3.0380263970E+00  1.6368709049E-02  1.5941213532E-02  6.1215626457E-01
  1.7802675585E+04  7.6945929815E-01  3.0332815160E+00  1.6630589838E-02  1.6191854515E-02  6.1411811102E-01
  1.7899665552E+04  7.7507545811E-01  3.0285744612E+00  1.6895203346E-02  1.6444993058E-02  6.1606410570E-01
  1.7996655518E+04  7.8070192802E-01  3.0239000884E+00  1.7162563049E-02  1.6700637753E-02  6.1799431495E-01
  1.8093645485E+04  7.8637005247E-01  3.0193211420E+00  1.7432682418E-02  1.6958814847E-02  6.1990880760E-01
  1.8190635452E+04  7.9205685914E-01  3.0147898357E+00  1.7705574915E-02  1.7219522480E-02  6.2180765490E-01
  1.8287625418E+04  7.9775422241E-01  3.0102893719E+00  1.7981253996E-02  1.7482766033E-02  6.2369093041E-01
  1.8384615385E+04  8.0348560544E-01  3.0058652344E+00  1.8259733110E-02  1.7748568106E-02  6.2555870983E-01
  1.8481605351E+04  8.0924394123E-01  3.0015022803E+00  1.8541025701E-02  1.8016934874E-02  6.2741107097E-01
  1.8578595318E+04  8.1501308097E-01  2.9971684458E+00  1.8825145203E-02  1.8287866989E-02  6.2924809069E-01
  1.8675585284E+04  8.2080633326E-01  2.9928886468E+00  1.9112105046E-02  1.8561381656E-02  6.3106983709E-01
  1.8772575251E+04  8.2663707061E-01  2.9886870717E+00  1.9401918653E-02  1.8837496586E-02  6.3287637833E-01
  1.8869565217E+04  8.3247886001E-01  2.9845130014E+00  1.9694599439E-02  1.9116205946E-02  6.3466778501E-01
  1.8966555184E+04  8.3833251698E-01  2.9803676800E+00  1.9990160813E-02  1.9397519541E-02  6.3644413009E-01
  1.9063545151E+04  8.4423651830E-01  2.9763209032E+00  2.0288616179E-02  1.9681470630E-02  6.3820548874E-01
  1.9160535117E+04  8.5015182059E-01  2.9723001161E+00  2.0589978933E-02  1.9968044886E-02  6.3995193825E-01
  1.9257525084E+04  8.5607838809E-01  2.9683050215E+00  2.0894262465E-02  2.0257251466E-02  6.4168355793E-01
  1.9354515050E+04  8.6204245957E-01  2.9643817845E+00  2.1201480157E-02  2.0549116641E-02  6.4340042897E-01
  1.9451505017E+04  8.6803212798E-01  2.9605081568E+00  2.1511645389E-02  2.0843642404E-02  6.4510263439E-01
  1.9548494983E+04  8.7403331172E-01  2.9566588200E+00  2.1824771530E-02  2.1140828754E-02  6.4679025811E-01
  1.9645484950E+04  8.8005497332E-01  2.9528489509E+00  2.2140871944E-02  2.1440690827E-02  6.4846337736E-01
  1.9742474916E+04  8.8611985104E-01  2.9491166908E+00  2.2459959990E-02  2.1743253657E-02  6.5012206656E-01
  1.9839464883E+04  8.9219649512E-01  2.9454074043E+00  2.2782049021E-02  2.2048504987E-02  6.5176640219E-01
  1.9936454849E+04  8.9828487071E-01  2.9417208387E+00  2.3107152381E-02  2.2356453670E-02  6.5339646273E-01
  2.0033444816E+04  9.0441498431E-01  2.9381064101E+00  2.3435944602E-02  2.2667748887E-02  6.5501232858E-01
  2.0130434783E+04  9.1056795406E-01  2.9345317771E+00  2.3769064323E-02  2.2982969989E-02  6.5661408195E-01
  2.0227424749E+04  9.1673290793E-01  2.9309786434E+00  2.4105283689E-02  2.3300956002E-02  6.5820180674E-01
  2.0324414716E+04  9.2291749495E-01  2.9274590675E+00  2.4444616473E-02  2.3621721759E-02  6.5977558846E-01
  2.0421404682E+04  9.2914782160E-01  2.9240140164E+00  2.4787076441E-02  2.3945296613E-02  6.6133551415E-01
  2.0518394649E+04  9.3539038785E-01  2.9205893140E+00  2.5132677353E-02  2.4271664450E-02  6.6288167081E-01
  2.0615384615E+04  9.4164515971E-01  2.9171847448E+00  2.5481432967E-02  2.4600834139E-02  6.6441413875E-01
  2.0712374582E+04  9.4793627877E-01  2.9138371854E+00  2.5833357034E-02  2.4932833932E-02  6.6593299724E-01
  2.0809364548E+04  9.5425754874E-01  2.9105361843E+00  2.6188463300E-02  2.5267668416E-02  6.6743832728E-01
  2.0906354515E+04  9.6059128352E-01  2.9072542466E+00  2.6546765506E-02  2.5605332334E-02  6.6893021160E-01
  2.1003344482E+04  9.6693744969E-01  2.9039911746E+00  2.6908277388E-02  2.5945834367E-02  6.7040873448E-01
  2.1100334448E+04  9.7333451439E-01  2.9008034526E+00  2.7273012679E-02  2.6289215885E-02  6.7187398170E-01
  2.1197324415E+04  9.7974830425E-01  2.8976397155E+00  2.7640985103E-02  2.6635457414E-02  6.7332604043E-01
  2.1294314381E+04  9.8617478850E-01  2.8944938483E+00  2.8012208383E-02  2.6984564148E-02  6.7476499912E-01
  2.1391304348E+04  9.9262127485E-01  2.8913761230E+00  2.8386696236E-02  2.7336551083E-02  6.7619094989E-01
  2.1488294314E+04  9.9911620887E-01  2.8883263746E+00  2.8764462372E-02  2.7691452507E-02  6.7760399343E-01
  2.1585284281E+04  1.0056241038E+00  2.8852935558E+00  2.9145520500E-02  2.8049245867E-02  6.7900420845E-01
  2.1682274247E+04  1.0121449272E+00  2.8822774971E+00  2.9529884320E-02  2.8409939519E-02  6.8039167171E-01
  2.1779264214E+04  1.0186948467E+00  2.8793001885E+00  2.9917567532E-02  2.8773556906E-02  6.8176646173E-01
  2.1876254181E+04  1.0252852415E+00  2.8763764633E+00  3.0308583826E-02  2.9140117705E-02  6.8312865867E-01
  2.1973244147E+04  1.0318888352E+00  2.8734686212E+00  3.0702946891E-02  2.9509605027E-02  6.8447834424E-01
  2.2070234114E+04  1.0385055958E+00  2.8705765064E+00  3.1100670411E-02  2.9882027041E-02  6.8581560161E-01
  2.2167224080E+04  1.0451579059E+00  2.8677294208E+00  3.1501768063E-02  3.0257413924E-02  6.8714051529E-01
  2.2264214047E+04  1.0518453589E+00  2.8649260772E+00  3.1906253521E-02  3.0635774244E-02  6.8845317106E-01
  2.2361204013E+04  1.0585462533E+00  2.8621376419E+00  3.2314165643E-02  3.1017118188E-02  6.8975365588E-01
  2.2458193980E+04  1.0652605575E+00  2.8593639716E+00  3.2730366397E-02  3.1405917580E-02  6.9104205779E-01
  2.2555183946E+04  1.0720140531E+00  2.8566375317E+00  3.3150099469E-02  3.1797809168E-02  6.9231846583E-01
  2.2652173913E+04  1.0788001696E+00  2.8539492762E+00  3.3573379455E-02  3.2192795651E-02  6.9358296998E-01
  2.2749163880E+04  1.0855999745E+00  2.8512750201E+00  3.4000220948E-02  3.2590866166E-02  6.9483566104E-01
  2.2846153846E+04  1.0924134368E+00  2.8486146312E+00  3.4430638540E-02  3.2992029126E-02  6.9607663059E-01
  2.2943143813E+04  1.0992667456E+00  2.8459998307E+00  3.4864646818E-02  3.3396321470E-02  6.9730597090E-01
  2.3040133779E+04  1.1061531385E+00  2.8434216906E+00  3.5302260368E-02  3.3803745172E-02  6.9852377487E-01
  2.3137123746E+04  1.1130534714E+00  2.8408567015E+00  3.5743493773E-02  3.4214287929E-02  6.9973013357E-01
  2.3234113712E+04  1.1199677139E+00  2.8383047416E+00  3.6188361612E-02  3.4627957948E-02  7.0092512685E-01
  2.3331103679E+04  1.1269192919E+00  2.8357931035E+00  3.6636878462E-02  3.5044790252E-02  7.0210883231E-01
  2.3428093645E+04  1.1339075814E+00  2.8333204022E+00  3.7089058900E-02  3.5464793261E-02  7.0328132888E-01
  2.3525083612E+04  1.1409100672E+00  2.8308600594E+00  3.7544917497E-02  3.5887949607E-02  7.0444269668E-01
  2.3622073579E+04  1.1479267195E+00  2.8284119626E+00  3.8004468822E-02  3.6314267292E-02  7.0559301700E-01
  2.3719063545E+04  1.1549748456E+00  2.8259955013E+00  3.8467727443E-02  3.6743775103E-02  7.0673237217E-01
  2.3816053512E+04  1.1620666589E+00  2.8236238362E+00  3.8934707924E-02  3.7176496602E-02  7.0786084548E-01
  2.3913043478E+04  1.1691729296E+00  2.8212637882E+00  3.9405424827E-02  3.7612404969E-02  7.0897852111E-01
  2.4010033445E+04  1.1762936283E+00  2.8189152538E+00  3.9879892711E-02  3.8051508004E-02  7.1008548406E-01
  2.4107023411E+04  1.1834363998E+00  2.8165864408E+00  4.0358126134E-02  3.8493823112E-02  7.1118182003E-01
  2.4204013378E+04  1.1906333706E+00  2.8143116625E+00  4.0840139648E-02  3.8939399338E-02  7.1226761542E-01
  2.4301003344E+04  1.1978450646E+00  2.8120478075E+00  4.1325947807E-02  3.9388195212E-02  7.1334295719E-01
  2.4397993311E+04  1.2050714531E+00  2.8097947803E+00  4.1815565159E-02  3.9840218325E-02  7.1440793284E-01
  2.4494983278E+04  1.2123125072E+00  2.8075524863E+00  4.2309006251E-02  4.0295476202E-02  7.1546263032E-01
  2.4591973244E+04  1.2196105485E+00  2.8053647065E+00  4.2806285627E-02  4.0754032859E-02  7.1650713798E-01
  2.4688963211E+04  1.2269293106E+00  2.8031931739E+00  4.3307417829E-02  4.1215848741E-02  7.1754154420E-01
  2.4785953177E+04  1.2342630383E+00  2.8010318264E+00  4.3812417395E-02  4.1680923669E-02  7.1856593073E-01
  2.4882943144E+04  1.2416117035E+00  2.7988805767E+00  4.4321298864E-02  4.2149264960E-02  7.1958037312E-01
  2.4979933110E+04  1.2490006847E+00  2.7967648735E+00  4.4834076769E-02  4.2620915384E-02  7.2058494758E-01
  2.5076923077E+04  1.2564278469E+00  2.7946820190E+00  4.5351250830E-02  4.3096318520E-02  7.2157973127E-01
  2.5173913043E+04  1.2638702482E+00  2.7926087470E+00  4.5872487418E-02  4.3575134716E-02  7.2256480210E-01
  2.5270903010E+04  1.2713278609E+00  2.7905449768E+00  4.6397675786E-02  4.4057257835E-02  7.2354023878E-01
  2.5367892977E+04  1.2788050410E+00  2.7884951055E+00  4.6926830554E-02  4.4542701437E-02  7.2450612066E-01
  2.5464882943E+04  1.2863397995E+00  2.7864975622E+00  4.7459966343E-02  4.5031529477E-02  7.2546252767E-01
  2.5561872910E+04  1.2938900562E+00  2.7845090355E+00  4.7997097768E-02  4.5523687681E-02  7.2640954032E-01
  2.5658862876E+04  1.3014557840E+00  2.7825294506E+00  4.8538239444E-02  4.6019182995E-02  7.2734723956E-01
  2.5755852843E+04  1.3090369558E+00  2.7805587337E+00  4.9083405984E-02  4.6518022301E-02  7.2827570674E-01
  2.5852842809E+04  1.3166594071E+00  2.7786240956E+00  4.9632611996E-02  4.7020253214E-02  7.2919502358E-01
  2.5949832776E+04  1.3243157240E+00  2.7767171928E+00  5.0185872090E-02  4.7525872068E-02  7.3010527207E-01
  2.6046822742E+04  1.3319877499E+00  2.7748187053E+00  5.0743200871E-02  4.8034857305E-02  7.3100653445E-01
  2.6143812709E+04  1.3396754586E+00  2.7729285648E+00  5.1304612942E-02  4.8547215588E-02  7.3189889313E-01
  2.6240802676E+04  1.3473789108E+00  2.7710468001E+00  5.1870122904E-02  4.9062953659E-02  7.3278242823E-01
  2.6337792642E+04  1.3551393565E+00  2.7692185641E+00  5.2439745358E-02  4.9582147812E-02  7.3365721232E-01
  2.6434782609E+04  1.3629157275E+00  2.7673982478E+00  5.3013494900E-02  5.0104736690E-02  7.3452331709E-01
  2.6531772575E+04  1.3707079980E+00  2.7655857881E+00  5.3591386125E-02  5.0630726732E-02  7.3538081489E-01
  2.6628762542E+04  1.3785161422E+00  2.7637811226E+00  5.4173433626E-02  5.1160124312E-02  7.3622977864E-01
  2.6725752508E+04  1.3863531972E+00  2.7619992376E+00  5.4759651994E-02  5.1692959171E-02  7.3707028179E-01
  2.6822742475E+04  1.3942318285E+00  2.7602543172E+00  5.5350055817E-02  5.2229261323E-02  7.3790239824E-01
  2.6919732441E+04  1.4021265542E+00  2.7585167914E+00  5.5944659682E-02  5.2768991805E-02  7.3872620228E-01
  2.7016722408E+04  1.4100373488E+00  2.7567866024E+00  5.6543478173E-02  5.3312156762E-02  7.3954176855E-01
  2.7113712375E+04  1.4179641873E+00  2.7550636931E+00  5.7146525874E-02  5.3858762277E-02  7.4034917196E-01
  2.7210702341E+04  1.4259283552E+00  2.7533738372E+00  5.7753817363E-02  5.4408855476E-02  7.4114848768E-01
  2.7307692308E+04  1.4339232999E+00  2.7517086373E+00  5.8365367219E-02  5.4962430897E-02  7.4193979103E-01
  2.7404682274E+04  1.4419344868E+00  2.7500503430E+00  5.8982526308E-02  5.5520650791E-02  7.4272315747E-01
  2.7501672241E+04  1.4499618912E+00  2.7483989015E+00  5.9609684420E-02  5.6087391510E-02  7.4349866258E-01
  2.7598662207E+04  1.4580054887E+00  2.7467542603E+00  6.0241267909E-02  5.6657702901E-02  7.4426638174E-01
  2.7695652174E+04  1.4660906471E+00  2.7451490200E+00  6.0877292285E-02  5.7231644068E-02  7.4502638584E-01
  2.7792642140E+04  1.4741998415E+00  2.7435601668E+00  6.1517773058E-02  5.7809186023E-02  7.4577874129E-01
  2.7889632107E+04  1.4823254048E+00  2.7419777635E+00  6.2162725737E-02  5.8390319130E-02  7.4652351481E-01
  2.7986622074E+04  1.4904673130E+00  2.7404017616E+00  6.2812165831E-02  5.8975049427E-02  7.4726077351E-01
  2.8083612040E+04  1.4986255421E+00  2.7388321132E+00  6.3466108847E-02  5.9563382887E-02  7.4799058487E-01
  2.8180602007E+04  1.5068259880E+00  2.7373044801E+00  6.4124570295E-02  6.0155383964E-02  7.4871301671E-01
  2.8277591973E+04  1.5150471795E+00  2.7357888038E+00  6.4787565681E-02  6.0751011393E-02  7.4942813708E-01
  2.8374581940E+04  1.5232848452E+00  2.7342791522E+00  6.5455110514E-02  6.1350261469E-02  7.5013601425E-01
  2.8471571906E+04  1.5315389618E+00  2.7327754810E+00  6.6127220300E-02  6.1953139913E-02  7.5083671666E-01
  2.8568561873E+04  1.5398095059E+00  2.7312777460E+00  6.6803910546E-02  6.2559652374E-02  7.5153031286E-01
  2.8665551839E+04  1.5481200086E+00  2.7298210879E+00  6.7485196758E-02  6.3169862488E-02  7.5221687151E-01
  2.8762541806E+04  1.5564507585E+00  2.7283756071E+00  6.8171094443E-02  6.3783728563E-02  7.5289646126E-01
  2.8859531773E+04  1.5647980666E+00  2.7269357539E+00  6.8861619106E-02  6.4401247126E-02  7.5356915079E-01
  2.8956521739E+04  1.5731619101E+00  2.7255014876E+00  6.9556786253E-02  6.5022423571E-02  7.5423500842E-01
  2.9053511706E+04  1.5815422661E+00  2.7240727680E+00  7.0256611388E-02  6.5647263220E-02  7.5489409804E-01
  2.9150501672E+04  1.5899581211E+00  2.7226808019E+00  7.0961110017E-02  6.6275822869E-02  7.5554648052E-01
  2.9247491639E+04  1.5983958081E+00  2.7213027092E+00  7.1670297645E-02  6.6908071941E-02  7.5619221698E-01
  2.9344481605E+04  1.6068501156E+00  2.7199298730E+00  7.2384189774E-02  6.7544001652E-02  7.5683136881E-01
  2.9441471572E+04  1.6153210215E+00  2.7185622560E+00  7.3102801909E-02  6.8183617065E-02  7.5746399760E-01
  2.9538461538E+04  1.6238085034E+00  2.7171998212E+00  7.3826149554E-02  6.8826923173E-02  7.5809016516E-01
  2.9635451505E+04  1.6323255872E+00  2.7158665892E+00  7.4554248212E-02  6.9473964274E-02  7.5870993340E-01
  2.9732441472E+04  1.6408674099E+00  2.7145532385E+00  7.5287113385E-02  7.0124731699E-02  7.5932336435E-01
  2.9829431438E+04  1.6494258940E+00  2.7132447971E+00  7.6024760576E-02  7.0779206194E-02  7.5993052008E-01
  2.9926421405E+04  1.6580010177E+00  2.7119412309E+00  7.6767205288E-02  7.1437392489E-02  7.6053146270E-01
  3.0023411371E+04  1.6665927591E+00  2.7106425058E+00  7.7515093167E-02  7.2099840419E-02  7.6112625428E-01
  3.0120401338E+04  1.6752074834E+00  2.7093623628E+00  7.8269816251E-02  7.2767764837E-02  7.6171495685E-01
  3.0217391304E+04  1.6838501799E+00  2.7081112844E+00  7.9029425833E-02  7.3439487336E-02  7.6229763200E-01
  3.0314381271E+04  1.6925095548E+00  2.7068647901E+00  7.9793937714E-02  7.4114974121E-02  7.6287433513E-01
  3.0411371237E+04  1.7011855870E+00  2.7056228486E+00  8.0563367696E-02  7.4794229720E-02  7.6344512276E-01
  3.0508361204E+04  1.7098782550E+00  2.7043854287E+00  8.1337731581E-02  7.5477258582E-02  7.6401005291E-01
  3.0605351171E+04  1.7185877218E+00  2.7031530109E+00  8.2117045170E-02  7.6164065853E-02  7.6456918318E-01
  3.0702341137E+04  1.7273271388E+00  2.7019619374E+00  8.2901324265E-02  7.6854711369E-02  7.6512253085E-01
  3.0799331104E+04  1.7360832227E+00  2.7007751430E+00  8.3690584669E-02  7.7549144695E-02  7.6567187658E-01
  3.0896321070E+04  1.7448559529E+00  2.6995925988E+00  8.4484842183E-02  7.8247370006E-02  7.6622099449E-01
  3.0993311037E+04  1.7536453084E+00  2.6984142765E+00  8.5284112611E-02  7.8949391407E-02  7.6677011341E-01
  3.1090301003E+04  1.7624512687E+00  2.6972401477E+00  8.6088411755E-02  7.9655212922E-02  7.6731921640E-01
  3.1187290970E+04  1.7712790565E+00  2.6960912766E+00  8.6897755419E-02  8.0364868037E-02  7.6786829407E-01
