#[MATERIAL DEFINITION FOR MC-GPU: interaction mean free path and sampling data from PENELOPE 2006]
#[MATERIAL NAME]
# nai                                                           
#[NOMINAL DENSITY (g/cm^3)]
#   3.67000000
#[NUMBER OF DATA VALUES]
#   1495
#[MEAN FREE PATHS (cm) (ie, average distance between interactions)]
#[Energy (eV)     | Rayleigh        | Compton         | Photoelectric   | TOTAL (+pair prod) (cm) | Rayleigh: max cumul prob F^2]
  5.0000000000E+03  6.3524163533E-02  5.9664170602E+00  3.7334247208E-04  3.7113800639E-04  1.3914170301E-01
  5.0969899666E+03  6.4331701135E-02  5.8864953494E+00  3.9264340440E-04  3.9023560288E-04  1.4268466608E-01
  5.1939799331E+03  6.5144245911E-02  5.8095369098E+00  3.5905510221E-04  3.5706500125E-04  1.4622361811E-01
  5.2909698997E+03  6.5961857193E-02  5.7353770319E+00  3.7611882812E-04  3.7396194865E-04  1.4975776123E-01
  5.3879598662E+03  6.6784585378E-02  5.6638627594E+00  3.9366086460E-04  3.9132699398E-04  1.5328633432E-01
  5.4849498328E+03  6.7612472191E-02  5.5948518612E+00  4.1168593802E-04  4.0916446680E-04  1.5680851933E-01
  5.5819397993E+03  6.8445550920E-02  5.5282119089E+00  4.3025717091E-04  4.2753634984E-04  1.6032354793E-01
  5.6789297659E+03  6.9283846612E-02  5.4638194484E+00  4.4959892556E-04  4.4666366717E-04  1.6383071299E-01
  5.7759197324E+03  7.0127376254E-02  5.4015592545E+00  4.6946001223E-04  4.6629790530E-04  1.6732936541E-01
  5.8729096990E+03  7.0976148921E-02  5.3413236577E+00  4.8984528752E-04  4.8644346364E-04  1.7081891094E-01
  5.9698996656E+03  7.1830165908E-02  5.2830119473E+00  5.1075957115E-04  5.0710469761E-04  1.7429875776E-01
  6.0668896321E+03  7.2689420585E-02  5.2265303381E+00  5.3246282876E-04  5.2853735364E-04  1.7776827566E-01
  6.1638795987E+03  7.3553898059E-02  5.1717922856E+00  5.5484041229E-04  5.5062777961E-04  1.8122688117E-01
  6.2608695652E+03  7.4423575326E-02  5.1187177386E+00  5.7778660053E-04  5.7327130584E-04  1.8467403638E-01
  6.3578595318E+03  7.5298422010E-02  5.0672313416E+00  6.0130668458E-04  5.9647268289E-04  1.8810924654E-01
  6.4548494983E+03  7.6179015812E-02  5.0172791496E+00  6.2540592207E-04  6.2023666009E-04  1.9153205682E-01
  6.5518394649E+03  7.7065498785E-02  4.9687982523E+00  6.5009356046E-04  6.4457187860E-04  1.9494201263E-01
  6.6488294314E+03  7.7957210466E-02  4.9217076052E+00  6.7537247943E-04  6.6948064982E-04  1.9833865911E-01
  6.7458193980E+03  7.8854095888E-02  4.8759469586E+00  7.0124641710E-04  6.9496616169E-04  2.0172157752E-01
  6.8428093645E+03  7.9756093021E-02  4.8314592318E+00  7.2772050829E-04  7.2103296632E-04  2.0509038321E-01
  6.9397993311E+03  8.0663132751E-02  4.7881903012E+00  7.5479985764E-04  7.4768557646E-04  2.0844472382E-01
  7.0367892977E+03  8.1575213657E-02  4.7460906937E+00  7.8259497425E-04  7.7503187890E-04  2.1178426652E-01
  7.1337792642E+03  8.2494518803E-02  4.7051688108E+00  8.1118924145E-04  8.0315316872E-04  2.1510867822E-01
  7.2307692308E+03  8.3418809991E-02  4.6653245147E+00  8.4042049183E-04  8.3188958560E-04  2.1841765115E-01
  7.3277591973E+03  8.4347983500E-02  4.6265143665E+00  8.7029407321E-04  8.6124581583E-04  2.2171090436E-01
  7.4247491639E+03  8.5281930003E-02  4.5886968759E+00  9.0081530596E-04  8.9122650728E-04  2.2498818224E-01
  7.5217391304E+03  8.6221904212E-02  4.5518657497E+00  9.3198948350E-04  9.2183642765E-04  2.2824925376E-01
  7.6187290970E+03  8.7168318779E-02  4.5159954646E+00  9.6382187277E-04  9.5308023503E-04  2.3149388848E-01
  7.7157190635E+03  8.8119362384E-02  4.4810083440E+00  9.9631771471E-04  9.8496228297E-04  2.3472186739E-01
  7.8127090301E+03  8.9074906583E-02  4.4468695761E+00  1.0294822247E-03  1.0174870738E-03  2.3793299257E-01
  7.9096989967E+03  9.0037038059E-02  4.4135980935E+00  1.0633205931E-03  1.0506593782E-03  2.4112708610E-01
  8.0066889632E+03  9.1005136461E-02  4.3811498002E+00  1.0978548816E-03  1.0845000825E-03  2.4430398899E-01
  8.1036789298E+03  9.1977539516E-02  4.3494578646E+00  1.1333082277E-03  1.1192259710E-03  2.4746356018E-01
  8.2006688963E+03  9.2954807177E-02  4.3185088843E+00  1.1694637419E-03  1.1546247411E-03  2.5060567557E-01
  8.2976588629E+03  9.3939779914E-02  4.2883419719E+00  1.2063267682E-03  1.1907014384E-03  2.5373022708E-01
  8.3946488294E+03  9.4928800664E-02  4.2588492961E+00  1.2439026271E-03  1.2274600542E-03  2.5683711268E-01
  8.4916387960E+03  9.5921862968E-02  4.2300080157E+00  1.2821966168E-03  1.2649050938E-03  2.5992623326E-01
  8.5886287625E+03  9.6923380376E-02  4.2018934924E+00  1.3212140130E-03  1.3030418391E-03  2.6299750718E-01
  8.6856187291E+03  9.7928661797E-02  4.1743806307E+00  1.3609600695E-03  1.3418739376E-03  2.6605086584E-01
  8.7826086957E+03  9.8938124155E-02  4.1474586983E+00  1.4014400183E-03  1.3814058808E-03  2.6908625298E-01
  8.8795986622E+03  9.9955793042E-02  4.1211946046E+00  1.4426590702E-03  1.4216428815E-03  2.7210362398E-01
  8.9765886288E+03  1.0097691889E-01  4.0954678080E+00  1.4846224151E-03  1.4625883815E-03  2.7510294524E-01
  9.0735785953E+03  1.0200335369E-01  4.0702998173E+00  1.5278392744E-03  1.5047360288E-03  2.7808419354E-01
  9.1705685619E+03  1.0303672289E-01  4.0457067958E+00  1.5719982876E-03  1.5477828543E-03  2.8104735357E-01
  9.2675585284E+03  1.0407321903E-01  4.0215933747E+00  1.6169484391E-03  1.5915806967E-03  2.8399241532E-01
  9.3645484950E+03  1.0511716728E-01  3.9980315297E+00  1.6626953907E-03  1.6361353153E-03  2.8691937918E-01
  9.4615384615E+03  1.0616572804E-01  3.9749481679E+00  1.7092447849E-03  1.6814507677E-03  2.8982825370E-01
  9.5585284281E+03  1.0721845156E-01  3.9523199672E+00  1.7566022454E-03  1.7275316139E-03  2.9271905516E-01
  9.6555183946E+03  1.0827903663E-01  3.9302048655E+00  1.8047733768E-03  1.7743834993E-03  2.9559180702E-01
  9.7525083612E+03  1.0934222428E-01  3.9084871498E+00  1.8537637659E-03  1.8220096548E-03  2.9844653957E-01
  9.8494983278E+03  1.1041331445E-01  3.8872551070E+00  1.9035789808E-03  1.8704161628E-03  3.0128328949E-01
  9.9464882943E+03  1.1148829451E-01  3.8664198680E+00  1.9542245718E-03  1.9196064786E-03  3.0410209944E-01
  1.0043478261E+04  1.1256871228E-01  3.8459984195E+00  2.0057927247E-03  1.9696691640E-03  3.0690301774E-01
  1.0140468227E+04  1.1365539141E-01  3.8259942517E+00  2.0583148833E-03  2.0206338602E-03  3.0968609800E-01
  1.0237458194E+04  1.1474531046E-01  3.8063410371E+00  2.1116922659E-03  2.0724034714E-03  3.1245139876E-01
  1.0334448161E+04  1.1584352821E-01  3.7871196203E+00  2.1659304885E-03  2.1249842620E-03  3.1519898322E-01
  1.0431438127E+04  1.1694354377E-01  3.7682031839E+00  2.2210351502E-03  2.1783786070E-03  3.1792891892E-01
  1.0528428094E+04  1.1805264620E-01  3.7497111540E+00  2.2770118338E-03  2.2325935919E-03  3.2064127721E-01
  1.0625418060E+04  1.1916378300E-01  3.7315099146E+00  2.3338661058E-03  2.2876312201E-03  3.2333613126E-01
  1.0722408027E+04  1.2028267151E-01  3.7136898708E+00  2.3916035166E-03  2.3434980881E-03  3.2601356210E-01
  1.0819397993E+04  1.2140473164E-01  3.6961632493E+00  2.4502296004E-03  2.4001969304E-03  3.2867365498E-01
  1.0916387960E+04  1.2253351841E-01  3.6789821474E+00  2.5097498760E-03  2.4577335775E-03  3.3131649789E-01
  1.1013377926E+04  1.2366629862E-01  3.6620922547E+00  2.5701698465E-03  2.5161113516E-03  3.3394218133E-01
  1.1110367893E+04  1.2480508986E-01  3.6455192652E+00  2.6314949998E-03  2.5753354809E-03  3.3655079812E-01
  1.1207357860E+04  1.2594838184E-01  3.6292306782E+00  2.6938986644E-03  2.6355703596E-03  3.3914244322E-01
  1.1304347826E+04  1.2709727802E-01  3.6132370032E+00  2.7576670127E-03  2.6970890275E-03  3.4171721359E-01
  1.1401337793E+04  1.2825086873E-01  3.5975165632E+00  2.8223802296E-03  2.7594880476E-03  3.4427520798E-01
  1.1498327759E+04  1.2940996475E-01  3.5820752695E+00  2.8880440900E-03  2.8227723802E-03  3.4681652682E-01
  1.1595317726E+04  1.3057363671E-01  3.5668918998E+00  2.9546643547E-03  2.8869461368E-03  3.4934127202E-01
  1.1692307692E+04  1.3174302210E-01  3.5519777701E+00  3.0222467706E-03  2.9520144140E-03  3.5184954691E-01
  1.1789297659E+04  1.3291655370E-01  3.5373023111E+00  3.0907970704E-03  3.0179809233E-03  3.5434145672E-01
  1.1886287625E+04  1.3409631278E-01  3.5228917077E+00  3.1603209734E-03  3.0848512380E-03  3.5681711208E-01
  1.1983277592E+04  1.3527947856E-01  3.5086967678E+00  3.2308241852E-03  3.1526283045E-03  3.5927662358E-01
  1.2080267559E+04  1.3646969063E-01  3.4947675100E+00  3.3023123980E-03  3.2213185649E-03  3.6172010210E-01
  1.2177257525E+04  1.3766226157E-01  3.4810273297E+00  3.3747912906E-03  3.2909237820E-03  3.6414765906E-01
  1.2274247492E+04  1.3886300101E-01  3.4675585822E+00  3.4482665289E-03  3.3614517140E-03  3.6655940631E-01
  1.2371237458E+04  1.4006474484E-01  3.4542489111E+00  3.5227437655E-03  3.4329024653E-03  3.6895545386E-01
  1.2468227425E+04  1.4127608133E-01  3.4412210842E+00  3.5982286403E-03  3.5052856145E-03  3.7133596344E-01
  1.2565217391E+04  1.4248838573E-01  3.4283427745E+00  3.6751229081E-03  3.5789757966E-03  3.7370116732E-01
  1.2662207358E+04  1.4370876361E-01  3.4157137794E+00  3.7532460438E-03  3.6538046548E-03  3.7605129646E-01
  1.2759197324E+04  1.4493180050E-01  3.4032505065E+00  3.8324142425E-03  3.7295931476E-03  3.7838657739E-01
  1.2856187291E+04  1.4616087665E-01  3.3909978858E+00  3.9126333725E-03  3.8063479899E-03  3.8070723229E-01
  1.2953177258E+04  1.4739471153E-01  3.3789328727E+00  3.9939092901E-03  3.8840727752E-03  3.8301337996E-01
  1.3050167224E+04  1.4863224551E-01  3.3670368717E+00  4.0762478398E-03  3.9627711505E-03  3.8530506804E-01
  1.3147157191E+04  1.4987693991E-01  3.3553542952E+00  4.1596548544E-03  4.0424500459E-03  3.8758240623E-01
  1.3244147157E+04  1.5112279416E-01  3.3437976776E+00  4.2441361552E-03  4.1231093709E-03  3.8984550396E-01
  1.3341137124E+04  1.5237829991E-01  3.3324811329E+00  4.3296975517E-03  4.2047599377E-03  3.9209447032E-01
  1.3438127090E+04  1.5363513492E-01  3.3212858881E+00  4.4163448422E-03  4.2873996720E-03  3.9432941406E-01
  1.3535117057E+04  1.5489859936E-01  3.3102815468E+00  4.5040838138E-03  4.3710370413E-03  3.9655044355E-01
  1.3632107023E+04  1.5616646738E-01  3.2994338973E+00  4.5929202423E-03  4.4556745696E-03  3.9875766673E-01
  1.3729096990E+04  1.5743763997E-01  3.2887253762E+00  4.6828598924E-03  4.5413155608E-03  4.0095119111E-01
  1.3826086957E+04  1.5871658933E-01  3.2782122844E+00  4.7739085178E-03  4.6279680958E-03  4.0313112372E-01
  1.3923076923E+04  1.5999687885E-01  3.2678059406E+00  4.8660718614E-03  4.7156308040E-03  4.0529757109E-01
  1.4020066890E+04  1.6128529291E-01  3.2575931442E+00  4.9593556552E-03  4.8043138990E-03  4.0745063925E-01
  1.4117056856E+04  1.6257676877E-01  3.2475039735E+00  5.0537656206E-03  4.8940170225E-03  4.0959043368E-01
  1.4214046823E+04  1.6387236492E-01  3.2375499872E+00  5.1493074684E-03  4.9847452438E-03  4.1171705928E-01
  1.4311036789E+04  1.6517506689E-01  3.2277665585E+00  5.2459868988E-03  5.0765055749E-03  4.1383062042E-01
  1.4408026756E+04  1.6647922077E-01  3.2180784770E+00  5.3438096016E-03  5.1692966404E-03  4.1593122082E-01
  1.4505016722E+04  1.6779155141E-01  3.2085691140E+00  5.4427812564E-03  5.2631291748E-03  4.1801896363E-01
  1.4602006689E+04  1.6910702595E-01  3.1991715150E+00  5.5429075323E-03  5.3580022378E-03  4.2009395136E-01
  1.4698996656E+04  1.7042599598E-01  3.1898882587E+00  5.6441940885E-03  5.4539201540E-03  4.2215628587E-01
  1.4795986622E+04  1.7175282280E-01  3.1807710743E+00  5.7466465741E-03  5.5508915939E-03  4.2420606839E-01
  1.4892976589E+04  1.7308120904E-01  3.1717392632E+00  5.8502706280E-03  5.6489138191E-03  4.2624339980E-01
  1.4989966555E+04  1.7441637823E-01  3.1628554076E+00  5.9550718794E-03  5.7479964946E-03  4.2826838351E-01
  1.5086956522E+04  1.7575620297E-01  3.1540905754E+00  6.0618664409E-03  5.8488958294E-03  4.3028112261E-01
  1.5183946488E+04  1.7709763519E-01  3.1454059658E+00  6.1699678013E-03  5.9509666460E-03  4.3228171909E-01
  1.5280936455E+04  1.7844875866E-01  3.1368972087E+00  6.2792896915E-03  6.0541366716E-03  4.3427027405E-01
  1.5377926421E+04  1.7980172535E-01  3.1284672386E+00  6.3898380068E-03  6.1584008187E-03  4.3624688765E-01
  1.5474916388E+04  1.8115864403E-01  3.1201399394E+00  6.5016186332E-03  6.2637656178E-03  4.3821165917E-01
  1.5571906355E+04  1.8252318991E-01  3.1119565657E+00  6.6146374474E-03  6.3702397613E-03  4.4016468696E-01
  1.5668896321E+04  1.8388944554E-01  3.1038452680E+00  6.7289003175E-03  6.4778198872E-03  4.4210606849E-01
  1.5765886288E+04  1.8526179095E-01  3.0958559688E+00  6.8444131023E-03  6.5865155916E-03  4.4403590033E-01
  1.5862876254E+04  1.8663972203E-01  3.0879803970E+00  6.9611816518E-03  6.6963303280E-03  4.4595427815E-01
  1.5959866221E+04  1.8801940874E-01  3.0801726841E+00  7.0792118074E-03  6.8072629368E-03  4.4786129674E-01
  1.6056856187E+04  1.8940692970E-01  3.0725012282E+00  7.1985094015E-03  6.9193256453E-03  4.4975705000E-01
  1.6153846154E+04  1.9079838398E-01  3.0649190894E+00  7.3190802579E-03  7.0325171278E-03  4.5164163097E-01
  1.6250836120E+04  1.9219163911E-01  3.0574008821E+00  7.4409301918E-03  7.1468381930E-03  4.5351513179E-01
  1.6347826087E+04  1.9359407332E-01  3.0500283318E+00  7.5640650099E-03  7.2623033909E-03  4.5537764377E-01
  1.6444816054E+04  1.9499918408E-01  3.0427262063E+00  7.6884905104E-03  7.3789072457E-03  4.5722925732E-01
  1.6541806020E+04  1.9640621676E-01  3.0354851973E+00  7.8142124830E-03  7.4966523333E-03  4.5907006203E-01
  1.6638795987E+04  1.9782321466E-01  3.0283928873E+00  7.9412367090E-03  7.6155547741E-03  4.6090014674E-01
  1.6735785953E+04  1.9924211065E-01  3.0213582264E+00  8.0695689616E-03  7.7356061067E-03  4.6271960123E-01
  1.6832775920E+04  2.0066346312E-01  3.0143865911E+00  8.1992150055E-03  7.8568108257E-03  4.6452851495E-01
  1.6929765886E+04  2.0209432703E-01  3.0075532526E+00  8.3301805976E-03  7.9791840842E-03  4.6632697627E-01
  1.7026755853E+04  2.0352713256E-01  3.0007743085E+00  8.4624714862E-03  8.1027174846E-03  4.6811507262E-01
  1.7123745819E+04  2.0496251433E-01  2.9940559037E+00  8.5960934119E-03  8.2274156356E-03  4.6989289049E-01
  1.7220735786E+04  2.0640736474E-01  2.9874703157E+00  8.7310521071E-03  8.3532939624E-03  4.7166051546E-01
  1.7317725753E+04  2.0785419979E-01  2.9809360785E+00  8.8673532963E-03  8.4803435106E-03  4.7341803217E-01
  1.7414715719E+04  2.0930331046E-01  2.9744556581E+00  9.0050026963E-03  8.6085682712E-03  4.7516552437E-01
  1.7511705686E+04  2.1076226279E-01  2.9681072891E+00  9.1441316340E-03  8.7381001184E-03  4.7690307493E-01
  1.7608695652E+04  2.1222324229E-01  2.9618074215E+00  9.2855501052E-03  8.8696623983E-03  4.7863076581E-01
  1.7705685619E+04  2.1368624060E-01  2.9555554205E+00  9.4283603009E-03  9.0024327372E-03  4.8034867811E-01
  1.7802675585E+04  2.1515892872E-01  2.9494294560E+00  9.5725681740E-03  9.1364292894E-03  4.8205689209E-01
  1.7899665552E+04  2.1663415491E-01  2.9433541776E+00  9.7181796702E-03  9.2716424891E-03  4.8375548715E-01
  1.7996655518E+04  2.1811144195E-01  2.9373241421E+00  9.8652007277E-03  9.4080749724E-03  4.8544454183E-01
  1.8093645485E+04  2.1959723336E-01  2.9314039361E+00  1.0013637278E-02  9.5457431098E-03  4.8712413387E-01
  1.8190635452E+04  2.2108679911E-01  2.9255440112E+00  1.0163495244E-02  9.6846414031E-03  4.8879434016E-01
  1.8287625418E+04  2.2257846719E-01  2.9197268686E+00  1.0314780544E-02  9.8247700342E-03  4.9045523541E-01
  1.8384615385E+04  2.2407702196E-01  2.9139996425E+00  1.0467499087E-02  9.9661424671E-03  4.9210689547E-01
  1.8481605351E+04  2.2558101567E-01  2.9083463803E+00  1.0621656776E-02  1.0108759512E-02  4.9374939686E-01
  1.8578595318E+04  2.2708715266E-01  2.9027335901E+00  1.0777259507E-02  1.0252617780E-02  4.9538281522E-01
  1.8675585284E+04  2.2859812431E-01  2.8971872287E+00  1.0934313167E-02  1.0397726562E-02  4.9700722532E-01
  1.8772575251E+04  2.3011663007E-01  2.8917324434E+00  1.1092823640E-02  1.0544095504E-02  4.9862270109E-01
  1.8869565217E+04  2.3163731955E-01  2.8863159591E+00  1.1252796800E-02  1.0691716387E-02  5.0022931563E-01
  1.8966555184E+04  2.3316035548E-01  2.8809389625E+00  1.1414238515E-02  1.0840592908E-02  5.0182714121E-01
  1.9063545151E+04  2.3469345314E-01  2.8756749366E+00  1.1577154648E-02  1.0990746382E-02  5.0341624929E-01
  1.9160535117E+04  2.3622877445E-01  2.8704471701E+00  1.1741551051E-02  1.1142162350E-02  5.0499671054E-01
  1.9257525084E+04  2.3776631133E-01  2.8652552315E+00  1.1907433575E-02  1.1294844054E-02  5.0656859482E-01
  1.9354515050E+04  2.3931128160E-01  2.8601480612E+00  1.2074808059E-02  1.1448807468E-02  5.0813197125E-01
  1.9451505017E+04  2.4086130993E-01  2.8551018499E+00  1.2243680338E-02  1.1604050483E-02  5.0968690815E-01
  1.9548494983E+04  2.4241359334E-01  2.8500895746E+00  1.2414056242E-02  1.1760569565E-02  5.1123347312E-01
  1.9645484950E+04  2.4396989862E-01  2.8451273797E+00  1.2585941591E-02  1.1918372397E-02  5.1277173300E-01
  1.9742474916E+04  2.4553470511E-01  2.8402559570E+00  1.2759342201E-02  1.2077473920E-02  5.1430175389E-01
  1.9839464883E+04  2.4710180570E-01  2.8354166875E+00  1.2934263880E-02  1.2237861675E-02  5.1582360120E-01
  1.9936454849E+04  2.4867119250E-01  2.8306092034E+00  1.3110712431E-02  1.2399538763E-02  5.1733733959E-01
  2.0033444816E+04  2.5024872690E-01  2.8258866493E+00  1.3289090127E-02  1.2562878440E-02  5.1884303306E-01
  2.0130434783E+04  2.5183071230E-01  2.8212140345E+00  1.3469776790E-02  1.2728207397E-02  5.2034074490E-01
  2.0227424749E+04  2.5341502253E-01  2.8165715492E+00  1.3652033457E-02  1.2894856829E-02  5.2183053771E-01
  2.0324414716E+04  2.5500313205E-01  2.8119721221E+00  1.3835866137E-02  1.3062834073E-02  5.2331247344E-01
  2.0421404682E+04  2.5660007145E-01  2.8074598510E+00  1.4021280836E-02  1.3232156831E-02  5.2478661336E-01
  2.0518394649E+04  2.5819937391E-01  2.8029761492E+00  1.4208283549E-02  1.3402810283E-02  5.2625301810E-01
  2.0615384615E+04  2.5980103171E-01  2.7985207020E+00  1.4396880270E-02  1.3574797531E-02  5.2771174765E-01
  2.0712374582E+04  2.6140963422E-01  2.7941332273E+00  1.4587076984E-02  1.3748135336E-02  5.2916286134E-01
  2.0809364548E+04  2.6302399590E-01  2.7898023202E+00  1.4778879671E-02  1.3922823755E-02  5.3060641792E-01
  2.0906354515E+04  2.6464075083E-01  2.7854982183E+00  1.4972294306E-02  1.4098855967E-02  5.3204247547E-01
  2.1003344482E+04  2.6625989142E-01  2.7812206325E+00  1.5167326858E-02  1.4276234991E-02  5.3347109148E-01
  2.1100334448E+04  2.6788862609E-01  2.7770304409E+00  1.5363983289E-02  1.4454986488E-02  5.3489232385E-01
  2.1197324415E+04  2.6952054115E-01  2.7728720895E+00  1.5562269557E-02  1.4635093939E-02  5.3630623036E-01
  2.1294314381E+04  2.7115487947E-01  2.7687389057E+00  1.5762191613E-02  1.4816557981E-02  5.3771286786E-01
  2.1391304348E+04  2.7279299028E-01  2.7646419083E+00  1.5963755403E-02  1.4999385982E-02  5.3911229258E-01
  2.1488294314E+04  2.7444012495E-01  2.7606239984E+00  1.6166966868E-02  1.5183598439E-02  5.4050456009E-01
  2.1585284281E+04  2.7608972010E-01  2.7566299830E+00  1.6371831943E-02  1.5369177104E-02  5.4188972537E-01
  2.1682274247E+04  2.7774176831E-01  2.7526596136E+00  1.6578356557E-02  1.5556124857E-02  5.4326784277E-01
  2.1779264214E+04  2.7939921324E-01  2.7487365628E+00  1.6786546633E-02  1.5744454706E-02  5.4463896605E-01
  2.1876254181E+04  2.8106412082E-01  2.7448767444E+00  1.6996408090E-02  1.5934177096E-02  5.4600314839E-01
  2.1973244147E+04  2.8273151839E-01  2.7410393852E+00  1.7207946841E-02  1.6125277975E-02  5.4736044236E-01
  2.2070234114E+04  2.8440139864E-01  2.7372242561E+00  1.7421168793E-02  1.6317760141E-02  5.4871089999E-01
  2.2167224080E+04  2.8607777841E-01  2.7334629286E+00  1.7636079849E-02  1.6511640932E-02  5.5005457271E-01
  2.2264214047E+04  2.8776057712E-01  2.7297539184E+00  1.7852685905E-02  1.6706923373E-02  5.5139151144E-01
  2.2361204013E+04  2.8944589515E-01  2.7260660307E+00  1.8070992995E-02  1.6903596414E-02  5.5272176651E-01
  2.2458193980E+04  2.9113372532E-01  2.7223990543E+00  1.8291034391E-02  1.7101686712E-02  5.5404538774E-01
  2.2555183946E+04  2.9282862757E-01  2.7187879833E+00  1.8512788909E-02  1.7301190622E-02  5.5536242440E-01
  2.2652173913E+04  2.9452943140E-01  2.7152229611E+00  1.8736262425E-02  1.7502106973E-02  5.5667292526E-01
  2.2749163880E+04  2.9623278372E-01  2.7116778155E+00  1.8961460814E-02  1.7704425853E-02  5.5797693855E-01
  2.2846153846E+04  2.9793867744E-01  2.7081523516E+00  1.9188389942E-02  1.7908149902E-02  5.5927451200E-01
  2.2943143813E+04  2.9965167733E-01  2.7046807680E+00  1.9417055674E-02  1.8113299981E-02  5.6056569285E-01
  2.3040133779E+04  3.0137059611E-01  2.7012533402E+00  1.9647463865E-02  1.8319874567E-02  5.6185052785E-01
  2.3137123746E+04  3.0309209236E-01  2.6978446264E+00  1.9879620368E-02  1.8527863089E-02  5.6312906324E-01
  2.3234113712E+04  3.0481615912E-01  2.6944544463E+00  2.0113531032E-02  1.8737268108E-02  5.6440134479E-01
  2.3331103679E+04  3.0654681980E-01  2.6911122261E+00  2.0349201697E-02  1.8948109025E-02  5.6566741783E-01
  2.3428093645E+04  3.0828395924E-01  2.6878163920E+00  2.0586638202E-02  1.9160388483E-02  5.6692732717E-01
  2.3525083612E+04  3.1002370496E-01  2.6845381857E+00  2.0825846377E-02  1.9374092997E-02  5.6818111729E-01
  2.3622073579E+04  3.1176605009E-01  2.6812774407E+00  2.1066832051E-02  1.9589225047E-02  5.6942883283E-01
  2.3719063545E+04  3.1351392331E-01  2.6780550565E+00  2.1309601046E-02  1.9805799959E-02  5.7067051796E-01
  2.3816053512E+04  3.1526938503E-01  2.6748851779E+00  2.1554159179E-02  2.0023829770E-02  5.7190621632E-01
  2.3913043478E+04  3.1702748167E-01  2.6717319115E+00  2.1800512262E-02  2.0243295470E-02  5.7313597111E-01
  2.4010033445E+04  3.1878820646E-01  2.6685951033E+00  2.2048666103E-02  2.0464199462E-02  5.7435982507E-01
  2.4107023411E+04  3.2055283303E-01  2.6654835805E+00  2.2298626505E-02  2.0686549998E-02  5.7557782048E-01
  2.4204013378E+04  3.2232671463E-01  2.6624343541E+00  2.2550399264E-02  2.0910374492E-02  5.7678999918E-01
  2.4301003344E+04  3.2410325963E-01  2.6594007895E+00  2.2803990174E-02  2.1135645424E-02  5.7799640257E-01
  2.4397993311E+04  3.2588246135E-01  2.6563827441E+00  2.3059405024E-02  2.1362365120E-02  5.7919707162E-01
  2.4494983278E+04  3.2766431318E-01  2.6533800774E+00  2.3316649596E-02  2.1590535881E-02  5.8039204687E-01
  2.4591973244E+04  3.2945576682E-01  2.6504400537E+00  2.3575729670E-02  2.1820193725E-02  5.8158136846E-01
  2.4688963211E+04  3.3125085362E-01  2.6475212576E+00  2.3836651019E-02  2.2051312788E-02  5.8276507610E-01
  2.4785953177E+04  3.3304862554E-01  2.6446171009E+00  2.4099419411E-02  2.2283890805E-02  5.8394320909E-01
  2.4882943144E+04  3.3484907607E-01  2.6417274533E+00  2.4364040613E-02  2.2517930004E-02  5.8511580635E-01
  2.4979933110E+04  3.3665633926E-01  2.6388797744E+00  2.4630520383E-02  2.2753453551E-02  5.8628290640E-01
  2.5076923077E+04  3.3847005863E-01  2.6360710888E+00  2.4900675679E-02  2.2992006698E-02  5.8744454735E-01
  2.5173913043E+04  3.4028649134E-01  2.6332762176E+00  2.5173210230E-02  2.3232459461E-02  5.8860076694E-01
  2.5270903010E+04  3.4210563100E-01  2.6304950399E+00  2.5447661808E-02  2.3474414517E-02  5.8975160255E-01
  2.5367892977E+04  3.4392821267E-01  2.6277322610E+00  2.5724036459E-02  2.3717878060E-02  5.9089709116E-01
  2.5464882943E+04  3.4576065983E-01  2.6250292440E+00  2.6002340220E-02  2.3962886814E-02  5.9203726940E-01
  2.5561872910E+04  3.4759584846E-01  2.6223392671E+00  2.6282579127E-02  2.4209405798E-02  5.9317217353E-01
  2.5658862876E+04  3.4943377223E-01  2.6196622186E+00  2.6564759212E-02  2.4457437233E-02  5.9430183946E-01
  2.5755852843E+04  3.5127442487E-01  2.6169979876E+00  2.6848886500E-02  2.4706983316E-02  5.9542630262E-01
  2.5852842809E+04  3.5312244026E-01  2.6143757530E+00  2.7134967016E-02  2.4958072067E-02  5.9654559771E-01
  2.5949832776E+04  3.5497647980E-01  2.6117865038E+00  2.7423006776E-02  2.5210698942E-02  5.9765975995E-01
  2.6046822742E+04  3.5683328261E-01  2.6092094641E+00  2.7713011796E-02  2.5464848140E-02  5.9876882437E-01
  2.6143812709E+04  3.5869284249E-01  2.6066445314E+00  2.8004988085E-02  2.5720521779E-02  5.9987282568E-01
  2.6240802676E+04  3.6055516999E-01  2.6040917069E+00  2.8298941651E-02  2.5977722051E-02  6.0097179820E-01
  2.6337792642E+04  3.6242815205E-01  2.6015992453E+00  2.8594878494E-02  2.6236497312E-02  6.0206577593E-01
  2.6434782609E+04  3.6430392540E-01  2.5991183179E+00  2.8892804614E-02  2.6496804484E-02  6.0315479252E-01
  2.6531772575E+04  3.6618248396E-01  2.5966488293E+00  2.9192726004E-02  2.6758645606E-02  6.0423888129E-01
  2.6628762542E+04  3.6806382163E-01  2.5941906853E+00  2.9494648653E-02  2.7022022698E-02  6.0531807523E-01
  2.6725752508E+04  3.6995061118E-01  2.5917598273E+00  2.9798578549E-02  2.7286954105E-02  6.0639240701E-01
  2.6822742475E+04  3.7184544321E-01  2.5893713236E+00  3.0104521673E-02  2.7553458291E-02  6.0746190896E-01
  2.6919732441E+04  3.7374308847E-01  2.5869936302E+00  3.0412484003E-02  2.7821505657E-02  6.0852661311E-01
  2.7016722408E+04  3.7564354096E-01  2.5846266598E+00  3.0722471513E-02  2.8091098143E-02  6.0958655117E-01
  2.7113712375E+04  3.7754679474E-01  2.5822703255E+00  3.1034490173E-02  2.8362237667E-02  6.1064175457E-01
  2.7210702341E+04  3.7945755843E-01  2.5799519604E+00  3.1348545950E-02  2.8634956350E-02  6.1169225440E-01
  2.7307692308E+04  3.8137437504E-01  2.5776626045E+00  3.1664644806E-02  2.8909247551E-02  6.1273808146E-01
  2.7404682274E+04  3.8329402691E-01  2.5753833862E+00  3.1982792699E-02  2.9185092743E-02  6.1377926627E-01
  2.7501672241E+04  3.8521650817E-01  2.5731142248E+00  3.2302995584E-02  2.9462493769E-02  6.1481583905E-01
  2.7598662207E+04  3.8714181298E-01  2.5708550408E+00  3.2625259411E-02  2.9741452448E-02  6.1584782974E-01
  2.7695652174E+04  3.8907604300E-01  2.5686402836E+00  3.2949590128E-02  3.0022011656E-02  6.1687526798E-01
  2.7792642140E+04  3.9101497545E-01  2.5664455717E+00  3.3275993678E-02  3.0304145703E-02  6.1789818315E-01
  2.7889632107E+04  3.9295676530E-01  2.5642603710E+00  3.3604475999E-02  3.0587844100E-02  6.1891660434E-01
  2.7986622074E+04  3.9490140677E-01  2.5620846073E+00  3.3935043027E-02  3.0873108592E-02  6.1993056038E-01
  2.8083612040E+04  3.9684889417E-01  2.5599182075E+00  3.4267700695E-02  3.1159940900E-02  6.2094007983E-01
  2.8180602007E+04  3.9880606333E-01  2.5577987172E+00  3.4602454929E-02  3.1448390952E-02  6.2194519098E-01
  2.8277591973E+04  4.0076723953E-01  2.5556944270E+00  3.4939311655E-02  3.1738421429E-02  6.2294592185E-01
  2.8374581940E+04  4.0273129534E-01  2.5535990643E+00  3.5278276792E-02  3.2030026167E-02  6.2394230023E-01
  2.8471571906E+04  4.0469822511E-01  2.5515125609E+00  3.5619356258E-02  3.2323206812E-02  6.2493435364E-01
  2.8568561873E+04  4.0666802325E-01  2.5494348495E+00  3.5962555964E-02  3.2617964988E-02  6.2592210933E-01
  2.8665551839E+04  4.0864758556E-01  2.5474027884E+00  3.6307881822E-02  3.2914353233E-02  6.2690559434E-01
  2.8762541806E+04  4.1063113005E-01  2.5453849568E+00  3.6655339736E-02  3.3212331490E-02  6.2788483543E-01
  2.8859531773E+04  4.1261757644E-01  2.5433755083E+00  3.7004935609E-02  3.3511893471E-02  6.2885985915E-01
  2.8956521739E+04  4.1460691921E-01  2.5413743802E+00  3.7356675338E-02  3.3813040727E-02  6.2983069178E-01
  2.9053511706E+04  4.1659915287E-01  2.5393815102E+00  3.7710564819E-02  3.4115774784E-02  6.3079735940E-01
  2.9150501672E+04  4.1860054407E-01  2.5374295073E+00  3.8066609944E-02  3.4420145567E-02  6.3175988782E-01
  2.9247491639E+04  4.2060657800E-01  2.5354944102E+00  3.8424816598E-02  3.4726120725E-02  6.3271830265E-01
  2.9344481605E+04  4.2261553623E-01  2.5335671881E+00  3.8785190668E-02  3.5033688629E-02  6.3367262925E-01
  2.9441471572E+04  4.2462741331E-01  2.5316477830E+00  3.9147738032E-02  3.5342850734E-02  6.3462289278E-01
  2.9538461538E+04  4.2664220386E-01  2.5297361377E+00  3.9512464568E-02  3.5653608469E-02  6.3556911817E-01
  2.9635451505E+04  4.2866484196E-01  2.5278572546E+00  3.9879376149E-02  3.5966003089E-02  6.3651133012E-01
  2.9732441472E+04  4.3069348316E-01  2.5260013891E+00  4.0248478645E-02  3.6280022055E-02  6.3744955308E-01
  2.9829431438E+04  4.3272507108E-01  2.5241529237E+00  4.0619777922E-02  3.6595642348E-02  6.3838381148E-01
  2.9926421405E+04  4.3475960041E-01  2.5223118048E+00  4.0993279844E-02  3.6912865328E-02  6.3931412961E-01
  3.0023411371E+04  4.3679706584E-01  2.5204779797E+00  4.1369369575E-02  3.7231999563E-02  6.4024053161E-01
  3.0120401338E+04  4.3884035202E-01  2.5186656962E+00  4.1748880437E-02  3.7553739267E-02  6.4116304139E-01
  3.0217391304E+04  4.4089171585E-01  2.5168858065E+00  4.2130635253E-02  3.7877146268E-02  6.4208168265E-01
  3.0314381271E+04  4.4294604890E-01  2.5151128723E+00  4.2514640018E-02  3.8202179291E-02  6.4299647887E-01
  3.0411371237E+04  4.4500334595E-01  2.5133468445E+00  4.2900900726E-02  3.8528839654E-02  6.4390745333E-01
  3.0508361204E+04  4.4706360180E-01  2.5115876742E+00  4.3289423365E-02  3.8857128651E-02  6.4481462909E-01
  3.0605351171E+04  4.4912692065E-01  2.5098358425E+00  4.3680213923E-02  3.9187048516E-02  6.4571802902E-01
  3.0702341137E+04  4.5120112145E-01  2.5081289626E+00  4.4073278382E-02  3.9518669896E-02  6.4661767579E-01
  3.0799331104E+04  4.5327831403E-01  2.5064286216E+00  4.4468622723E-02  3.9851925285E-02  6.4751359185E-01
  3.0896321070E+04  4.5535849327E-01  2.5047347740E+00  4.4866252921E-02  4.0186815906E-02  6.4840579948E-01
  3.0993311037E+04  4.5744165408E-01  2.5030473748E+00  4.5266174951E-02  4.0523342957E-02  6.4929432074E-01
  3.1090301003E+04  4.5952779137E-01  2.5013663793E+00  4.5668394782E-02  4.0861507617E-02  6.5017917751E-01
  3.1187290970E+04  4.6162152325E-01  2.4997135341E+00  4.6072918382E-02  4.1201353788E-02  6.5106039149E-01
