#[MATERIAL DEFINITION FOR MC-GPU: interaction mean free path and sampling data from PENELOPE 2006]
#[MATERIAL NAME]
# NYLON, TYPE 11 (RILSAN)  (212)                                
#[NOMINAL DENSITY (g/cm^3)]
#   1.42500000
#[NUMBER OF DATA VALUES]
#   1495
#[MEAN FREE PATHS (cm) (ie, average distance between interactions)]
#[Energy (eV)     | Rayleigh        | Compton         | Photoelectric   | TOTAL (+pair prod) (cm) | Rayleigh: max cumul prob F^2]
  5.0000000000E+03  1.9461454863E+00  5.0289714046E+00  3.5236122108E-02  3.4372941207E-02  3.3668107660E-01
  5.0969899666E+03  1.9894019445E+00  4.9960272578E+00  3.7401290536E-02  3.6443324022E-02  3.4149955682E-01
  5.1939799331E+03  2.0329589423E+00  4.9644229508E+00  3.9654875125E-02  3.8593785282E-02  3.4625931997E-01
  5.2909698997E+03  2.0768071642E+00  4.9340761265E+00  4.1998732495E-02  4.0825619920E-02  3.5096436141E-01
  5.3879598662E+03  2.1209372493E+00  4.9049103878E+00  4.4434722764E-02  4.3140099382E-02  3.5561849167E-01
  5.4849498328E+03  2.1653398218E+00  4.8768547959E+00  4.6965234346E-02  4.5538964247E-02  3.6022536068E-01
  5.5819397993E+03  2.2100055213E+00  4.8498434190E+00  4.9598018074E-02  4.8028950134E-02  3.6478844510E-01
  5.6789297659E+03  2.2549250330E+00  4.8238149267E+00  5.2329182996E-02  5.0605816659E-02  3.6931084192E-01
  5.7759197324E+03  2.3000891171E+00  4.7987122235E+00  5.5160629925E-02  5.3270752228E-02  3.7379544332E-01
  5.8729096990E+03  2.3454886378E+00  4.7744821188E+00  5.8094263243E-02  5.6024917402E-02  3.7824505376E-01
  5.9698996656E+03  2.3911146013E+00  4.7510750276E+00  6.1131990854E-02  5.8869444057E-02  3.8266239553E-01
  6.0668896321E+03  2.4369586626E+00  4.7284447492E+00  6.4290932396E-02  6.1819496486E-02  3.8704990497E-01
  6.1638795987E+03  2.4830139981E+00  4.7065482999E+00  6.7566213286E-02  6.4869761589E-02  3.9140970457E-01
  6.2608695652E+03  2.5292752331E+00  4.6853456640E+00  7.0953260296E-02  6.8015242681E-02  3.9574386358E-01
  6.3578595318E+03  2.5757372269E+00  4.6647994578E+00  7.4454065895E-02  7.1256995834E-02  4.0005441888E-01
  6.4548494983E+03  2.6223994141E+00  4.6448905675E+00  7.8070626586E-02  7.4596051745E-02  4.0434322335E-01
  6.5518394649E+03  2.6692572677E+00  4.6255885209E+00  8.1804942848E-02  7.8033402365E-02  4.0861180489E-01
  6.6488294314E+03  2.7163010737E+00  4.6068457458E+00  8.5659019086E-02  8.1569994740E-02  4.1286164792E-01
  6.7458193980E+03  2.7635260100E+00  4.5886332440E+00  8.9634863578E-02  8.5206747938E-02  4.1709422988E-01
  6.8428093645E+03  2.8109274276E+00  4.5709238829E+00  9.3734488425E-02  8.8944544811E-02  4.2131086920E-01
  6.9397993311E+03  2.8585008697E+00  4.5536922775E+00  9.7959909504E-02  9.2784231269E-02  4.2551262075E-01
  7.0367892977E+03  2.9062424449E+00  4.5369161388E+00  1.0232348285E-01  9.6735855068E-02  4.2970052120E-01
  7.1337792642E+03  2.9541592735E+00  4.5206157708E+00  1.0683520061E-01  1.0080720970E-01  4.3387560488E-01
  7.2307692308E+03  3.0022385735E+00  4.5047273243E+00  1.1148085506E-01  1.0498440905E-01  4.3803871878E-01
  7.3277591973E+03  3.0504784549E+00  4.4892319145E+00  1.1626254481E-01  1.0926818132E-01  4.4219055218E-01
  7.4247491639E+03  3.0988770487E+00  4.4741117715E+00  1.2118237269E-01  1.1365921370E-01  4.4633180312E-01
  7.5217391304E+03  3.1474389936E+00  4.4593726008E+00  1.2624244570E-01  1.1815817667E-01  4.5046313289E-01
  7.6187290970E+03  3.1961647309E+00  4.4450042617E+00  1.3144487503E-01  1.2276568649E-01  4.5458500486E-01
  7.7157190635E+03  3.2450443405E+00  4.4309629440E+00  1.3679177592E-01  1.2748227463E-01  4.5869784471E-01
  7.8127090301E+03  3.2940760148E+00  4.4172345505E+00  1.4228526772E-01  1.3230845862E-01  4.6280208614E-01
  7.9096989967E+03  3.3432681569E+00  4.4038373794E+00  1.4792747373E-01  1.3724475980E-01  4.6689804123E-01
  8.0066889632E+03  3.3926165184E+00  4.3907484339E+00  1.5372348370E-01  1.4229413982E-01  4.7098592769E-01
  8.1036789298E+03  3.4421130779E+00  4.3779338379E+00  1.5971394982E-01  1.4748976870E-01  4.7506597609E-01
  8.2006688963E+03  3.4917599370E+00  4.3653919367E+00  1.6586236921E-01  1.5279870340E-01  4.7913835810E-01
  8.2976588629E+03  3.5415733526E+00  4.3531509204E+00  1.7217096333E-01  1.5822135511E-01  4.8320313764E-01
  8.3946488294E+03  3.5915352976E+00  4.3411533881E+00  1.7864195819E-01  1.6375791532E-01  4.8726038447E-01
  8.4916387960E+03  3.6416451382E+00  4.3293918520E+00  1.8527758428E-01  1.6940861642E-01  4.9131018613E-01
  8.5886287625E+03  3.6919307607E+00  4.3179138049E+00  1.9208007658E-01  1.7517379737E-01  4.9535246717E-01
  8.6856187291E+03  3.7423649214E+00  4.3066523363E+00  1.9905167444E-01  1.8105345422E-01  4.9938710227E-01
  8.7826086957E+03  3.7929495626E+00  4.2956061819E+00  2.0619462159E-01  1.8704769188E-01  5.0341398225E-01
  8.8795986622E+03  3.8437137390E+00  4.2848162910E+00  2.1351116611E-01  1.9315672434E-01  5.0743301345E-01
  8.9765886288E+03  3.8946255077E+00  4.2742192026E+00  2.2100356036E-01  1.9938036814E-01  5.1144411645E-01
  9.0735785953E+03  3.9456979684E+00  4.2638307123E+00  2.2868850794E-01  2.0573034527E-01  5.1544714270E-01
  9.1705685619E+03  3.9969469228E+00  4.2536632106E+00  2.3655939994E-01  2.1219931637E-01  5.1944181974E-01
  9.2675585284E+03  4.0483425827E+00  4.2436678683E+00  2.4461406677E-01  2.1878332680E-01  5.2342788204E-01
  9.3645484950E+03  4.0999234503E+00  4.2338880613E+00  2.5285480782E-01  2.2548243279E-01  5.2740507899E-01
  9.4615384615E+03  4.1516678777E+00  4.2242867823E+00  2.6128392685E-01  2.3229626176E-01  5.3137317435E-01
  9.5585284281E+03  4.2035709858E+00  4.2148543163E+00  2.6990373197E-01  2.3922450183E-01  5.3533193802E-01
  9.6555183946E+03  4.2556733930E+00  4.2056261963E+00  2.7871653554E-01  2.4626709355E-01  5.3928106005E-01
  9.7525083612E+03  4.3079217478E+00  4.1965407977E+00  2.8772465422E-01  2.5342330211E-01  5.4322019037E-01
  9.8494983278E+03  4.3603748950E+00  4.1876505574E+00  2.9693040886E-01  2.6069311341E-01  5.4714899359E-01
  9.9464882943E+03  4.4129911367E+00  4.1789083957E+00  3.0633612450E-01  2.6807576461E-01  5.5106714852E-01
  1.0043478261E+04  4.4657882285E+00  4.1703265798E+00  3.1597556324E-01  2.7559478307E-01  5.5497434703E-01
  1.0140468227E+04  4.5187815828E+00  4.1619101321E+00  3.2586096245E-01  2.8325672043E-01  5.5887025174E-01
  1.0237458194E+04  4.5719320376E+00  4.1536237595E+00  3.3595705371E-01  2.9103181344E-01  5.6275447881E-01
  1.0334448161E+04  4.6253143325E+00  4.1455172661E+00  3.4626626628E-01  2.9891997993E-01  5.6662665531E-01
  1.0431438127E+04  4.6788370480E+00  4.1375194950E+00  3.5679103412E-01  3.0691981033E-01  5.7048642248E-01
  1.0528428094E+04  4.7326135519E+00  4.1297034628E+00  3.6753379583E-01  3.1503146512E-01  5.7433343514E-01
  1.0625418060E+04  4.7865371743E+00  4.1219927350E+00  3.7849699462E-01  3.2325329229E-01  5.7816733462E-01
  1.0722408027E+04  4.8407032719E+00  4.1144438614E+00  3.8968307828E-01  3.3158525285E-01  5.8198773106E-01
  1.0819397993E+04  4.8950385647E+00  4.1070065892E+00  4.0109449912E-01  3.4002585033E-01  5.8579424548E-01
  1.0916387960E+04  4.9496071610E+00  4.0997149263E+00  4.1273371399E-01  3.4857472715E-01  5.8958651315E-01
  1.1013377926E+04  5.0043640741E+00  4.0925381605E+00  4.2460318419E-01  3.5723052352E-01  5.9336418578E-01
  1.1110367893E+04  5.0593484427E+00  4.0854943458E+00  4.3670537548E-01  3.6599260029E-01  5.9712692695E-01
  1.1207357860E+04  5.1145360501E+00  4.0785657273E+00  4.4905149441E-01  3.7486577735E-01  6.0087434764E-01
  1.1304347826E+04  5.1699498161E+00  4.0717609408E+00  4.6165881923E-01  3.8385929065E-01  6.0460606218E-01
  1.1401337793E+04  5.2255762545E+00  4.0650686564E+00  4.7450781625E-01  3.9295639741E-01  6.0832169980E-01
  1.1498327759E+04  5.2814333787E+00  4.0584945809E+00  4.8760100238E-01  4.0215612555E-01  6.1202090447E-01
  1.1595317726E+04  5.3375057876E+00  4.0520273233E+00  5.0094089907E-01  4.1145711500E-01  6.1570333462E-01
  1.1692307692E+04  5.3938205511E+00  4.0456761082E+00  5.1453003229E-01  4.2085842237E-01  6.1936866299E-01
  1.1789297659E+04  5.4503450131E+00  4.0394230394E+00  5.2837093250E-01  4.3035842651E-01  6.2301657632E-01
  1.1886287625E+04  5.5071320027E+00  4.0332872680E+00  5.4246613461E-01  4.3995640370E-01  6.2664677391E-01
  1.1983277592E+04  5.5641134851E+00  4.0272379858E+00  5.5681817796E-01  4.4965026153E-01  6.3025893188E-01
  1.2080267559E+04  5.6213875801E+00  4.0213106446E+00  5.7142960629E-01  4.5943974180E-01  6.3385271028E-01
  1.2177257525E+04  5.6788298763E+00  4.0154551519E+00  5.8630296771E-01  4.6932201252E-01  6.3742778520E-01
  1.2274247492E+04  5.7366062347E+00  4.0097296036E+00  6.0144081466E-01  4.7929758886E-01  6.4098384764E-01
  1.2371237458E+04  5.7945119067E+00  4.0040582800E+00  6.1684570392E-01  4.8936256544E-01  6.4452060328E-01
  1.2468227425E+04  5.8528059446E+00  3.9985282404E+00  6.3252019655E-01  4.9951860813E-01  6.4803777227E-01
  1.2565217391E+04  5.9112279040E+00  3.9930486016E+00  6.4852525560E-01  5.0979707531E-01  6.5153508895E-01
  1.2662207358E+04  5.9700033590E+00  3.9876914156E+00  6.6483655514E-01  5.2018179470E-01  6.5501230162E-01
  1.2759197324E+04  6.0289602423E+00  3.9823988441E+00  6.8142887946E-01  5.3065160643E-01  6.5846916408E-01
  1.2856187291E+04  6.0882134819E+00  3.9772047718E+00  6.9830487751E-01  5.4120639305E-01  6.6190541189E-01
  1.2953177258E+04  6.1477204907E+00  3.9720939861E+00  7.1546720285E-01  5.5184397478E-01  6.6532078935E-01
  1.3050167224E+04  6.2074497265E+00  3.9670546406E+00  7.3291851361E-01  5.6256223757E-01  6.6871505539E-01
  1.3147157191E+04  6.2675222360E+00  3.9621206331E+00  7.5066147246E-01  5.7336122547E-01  6.7208798325E-01
  1.3244147157E+04  6.3277281432E+00  3.9572289608E+00  7.6869874663E-01  5.8423622283E-01  6.7543936023E-01
  1.3341137124E+04  6.3883778667E+00  3.9524658819E+00  7.8703300782E-01  5.9519005089E-01  6.7876898741E-01
  1.3438127090E+04  6.4491671623E+00  3.9477440555E+00  8.0566693219E-01  6.0621649202E-01  6.8207667935E-01
  1.3535117057E+04  6.5102985149E+00  3.9431172870E+00  8.2460320039E-01  6.1731682500E-01  6.8536225712E-01
  1.3632107023E+04  6.5716870832E+00  3.9385608844E+00  8.4384449744E-01  6.2848801605E-01  6.8862553118E-01
  1.3729096990E+04  6.6332939932E+00  3.9340628317E+00  8.6340509334E-01  6.3973399505E-01  6.9186632110E-01
  1.3826086957E+04  6.6952978941E+00  3.9296676423E+00  8.8329657085E-01  6.5106049171E-01  6.9508446024E-01
  1.3923076923E+04  6.7574418528E+00  3.9253080367E+00  9.0350241304E-01  6.6245083928E-01  6.9827979537E-01
  1.4020066890E+04  6.8200081884E+00  3.9210529137E+00  9.2402534551E-01  6.7390788537E-01  7.0145218646E-01
  1.4117056856E+04  6.8827864078E+00  3.9168486717E+00  9.4486809831E-01  6.8542629990E-01  7.0460150627E-01
  1.4214046823E+04  6.9458251007E+00  3.9127056480E+00  9.6603340592E-01  6.9700502461E-01  7.0772763949E-01
  1.4311036789E+04  7.0092540895E+00  3.9086530308E+00  9.8752400721E-01  7.0864452191E-01  7.1083046864E-01
  1.4408026756E+04  7.0728280144E+00  3.9046319419E+00  1.0093426455E+00  7.2033857652E-01  7.1390987502E-01
  1.4505016722E+04  7.1368506535E+00  3.9007105777E+00  1.0314920683E+00  7.3209080226E-01  7.1696575225E-01
  1.4602006689E+04  7.2010949654E+00  3.8968359048E+00  1.0539750276E+00  7.4389523913E-01  7.1999800647E-01
  1.4698996656E+04  7.2655802548E+00  3.8930110888E+00  1.0767942798E+00  7.5575031796E-01  7.2300655604E-01
  1.4795986622E+04  7.3305118727E+00  3.8892794997E+00  1.0999525854E+00  7.6765810366E-01  7.2599133118E-01
  1.4892976589E+04  7.3955938415E+00  3.8855758340E+00  1.1234527092E+00  7.7961106214E-01  7.2895227343E-01
  1.4989966555E+04  7.4610810920E+00  3.8819529371E+00  1.1472974203E+00  7.9161226485E-01  7.3188932559E-01
  1.5086956522E+04  7.5268702254E+00  3.8783876885E+00  1.1715640131E+00  8.0369293995E-01  7.3480242739E-01
  1.5183946488E+04  7.5928123005E+00  3.8748485297E+00  1.1961921335E+00  8.1581758505E-01  7.3769152910E-01
  1.5280936455E+04  7.6593125025E+00  3.8714167618E+00  1.2211761636E+00  8.2798862264E-01  7.4055659242E-01
  1.5377926421E+04  7.7259779726E+00  3.8680115347E+00  1.2465189380E+00  8.4019610883E-01  7.4339759004E-01
  1.5474916388E+04  7.7929164480E+00  3.8646538335E+00  1.2722232956E+00  8.5244036620E-01  7.4621450538E-01
  1.5571906355E+04  7.8603161190E+00  3.8613795664E+00  1.2982920799E+00  8.6472363091E-01  7.4900733159E-01
  1.5668896321E+04  7.9278747907E+00  3.8581283782E+00  1.3247281385E+00  8.7703749470E-01  7.5177606031E-01
  1.5765886288E+04  7.9958205142E+00  3.8549437661E+00  1.3515343235E+00  8.8938511605E-01  7.5452068278E-01
  1.5862876254E+04  8.0641275739E+00  3.8518194502E+00  1.3787134914E+00  9.0176415718E-01  7.5724120029E-01
  1.5959866221E+04  8.1325964578E+00  3.8487166881E+00  1.4062685028E+00  9.1416821436E-01  7.5993762425E-01
  1.6056856187E+04  8.2015499667E+00  3.8456953959E+00  1.4342022229E+00  9.2660293745E-01  7.6260997577E-01
  1.6153846154E+04  8.2707815176E+00  3.8427156635E+00  1.4625175209E+00  9.3906176543E-01  7.6525828540E-01
  1.6250836120E+04  8.3401777901E+00  3.8397560564E+00  1.4912172703E+00  9.5154013182E-01  7.6788258929E-01
  1.6347826087E+04  8.4101383051E+00  3.8368887132E+00  1.5203043490E+00  9.6404592887E-01  7.7048291832E-01
  1.6444816054E+04  8.4803116118E+00  3.8340485198E+00  1.5497816389E+00  9.7656889812E-01  7.7305930897E-01
  1.6541806020E+04  8.5506568265E+00  3.8312278606E+00  1.5796520262E+00  9.8910616189E-01  7.7561180683E-01
  1.6638795987E+04  8.6216179884E+00  3.8285047145E+00  1.6099184013E+00  1.0016671901E+00  7.7814046624E-01
  1.6735785953E+04  8.6927504740E+00  3.8257993146E+00  1.6405836588E+00  1.0142390607E+00  7.8064534995E-01
  1.6832775920E+04  8.7640855737E+00  3.8231169478E+00  1.6716506972E+00  1.0268207513E+00  7.8312653386E-01
  1.6929765886E+04  8.8360203780E+00  3.8205253260E+00  1.7031224193E+00  1.0394209940E+00  7.8558409872E-01
  1.7026755853E+04  8.9081296208E+00  3.8179502509E+00  1.7350017321E+00  1.0520269866E+00  7.8801810268E-01
  1.7123745819E+04  8.9804495803E+00  3.8153977165E+00  1.7672915465E+00  1.0646379268E+00  7.9042861075E-01
  1.7220735786E+04  9.0533756794E+00  3.8129333348E+00  1.7999947775E+00  1.0772629386E+00  7.9281569628E-01
  1.7317725753E+04  9.1264794089E+00  3.8104843722E+00  1.8331143443E+00  1.0898887827E+00  7.9517944054E-01
  1.7414715719E+04  9.1997776764E+00  3.8080535072E+00  1.8666531699E+00  1.1025142073E+00  7.9751993239E-01
  1.7511705686E+04  9.2737125181E+00  3.8057123150E+00  1.9006412105E+00  1.1151593781E+00  7.9983726792E-01
  1.7608695652E+04  9.3478282562E+00  3.8033854814E+00  1.9352551474E+00  1.1278686050E+00  8.0213155011E-01
  1.7705685619E+04  9.4221243333E+00  3.8010728400E+00  1.9703040844E+00  1.1405725193E+00  8.0440288847E-01
  1.7802675585E+04  9.4970541821E+00  3.7988464720E+00  2.0057910596E+00  1.1532827837E+00  8.0665139874E-01
  1.7899665552E+04  9.5721959220E+00  3.7966379087E+00  2.0417191155E+00  1.1659856264E+00  8.0887720254E-01
  1.7996655518E+04  9.6475213127E+00  3.7944425540E+00  2.0780912992E+00  1.1786785975E+00  8.1108042430E-01
  1.8093645485E+04  9.7234142924E+00  3.7923204907E+00  2.1149106621E+00  1.1913717932E+00  8.1326117248E-01
  1.8190635452E+04  9.7995938346E+00  3.7902264951E+00  2.1521802600E+00  1.2040553322E+00  8.1541955217E-01
  1.8287625418E+04  9.8759603556E+00  3.7881447819E+00  2.1899031531E+00  1.2167246546E+00  8.1755567507E-01
  1.8384615385E+04  9.9528012144E+00  3.7861196278E+00  2.2280824059E+00  1.2293872883E+00  8.1966965917E-01
  1.8481605351E+04  1.0030030203E+01  3.7841366967E+00  2.2667210873E+00  1.2420392389E+00  8.2176162840E-01
  1.8578595318E+04  1.0107449514E+01  3.7821651750E+00  2.3058222703E+00  1.2546728492E+00  8.2383171234E-01
  1.8675585284E+04  1.0185222090E+01  3.7802297788E+00  2.3453890326E+00  1.2672919694E+00  8.2588004585E-01
  1.8772575251E+04  1.0263512037E+01  3.7783545953E+00  2.3854244559E+00  1.2799007015E+00  8.2790676880E-01
  1.8869565217E+04  1.0341995667E+01  3.7764899981E+00  2.4259316262E+00  1.2924871960E+00  8.2991202572E-01
  1.8966555184E+04  1.0420682889E+01  3.7746374352E+00  2.4669136337E+00  1.3050504079E+00  8.3189596554E-01
  1.9063545151E+04  1.0500045173E+01  3.7728668567E+00  2.5083735731E+00  1.3176049584E+00  8.3385874037E-01
  1.9160535117E+04  1.0579604517E+01  3.7711060878E+00  2.5503145430E+00  1.3301336045E+00  8.3580049088E-01
  1.9257525084E+04  1.0659360408E+01  3.7693550249E+00  2.5927396464E+00  1.3426350285E+00  8.3772134957E-01
  1.9354515050E+04  1.0739634266E+01  3.7676606912E+00  2.6356519904E+00  1.3551191612E+00  8.3962145363E-01
  1.9451505017E+04  1.0820280584E+01  3.7660008135E+00  2.6790546863E+00  1.3675799034E+00  8.4150094500E-01
  1.9548494983E+04  1.0901126851E+01  3.7643499177E+00  2.7229508496E+00  1.3800100667E+00  8.4335997008E-01
  1.9645484950E+04  1.0982282788E+01  3.7627238174E+00  2.7673435999E+00  1.3924123884E+00  8.4519867942E-01
  1.9742474916E+04  1.1064027204E+01  3.7611620431E+00  2.8122360609E+00  1.4047958500E+00  8.4701722744E-01
  1.9839464883E+04  1.1145974986E+01  3.7596085661E+00  2.8576313604E+00  1.4171456078E+00  8.4881577215E-01
  1.9936454849E+04  1.1228125645E+01  3.7580633021E+00  2.9035326304E+00  1.4294605272E+00  8.5059447487E-01
  2.0033444816E+04  1.1310845953E+01  3.7565780716E+00  2.9499811998E+00  1.4417622350E+00  8.5235349995E-01
  2.0130434783E+04  1.1393905476E+01  3.7551193507E+00  2.9970165822E+00  1.4540495060E+00  8.5409301085E-01
  2.0227424749E+04  1.1477171310E+01  3.7536682036E+00  3.0445703591E+00  1.4662990450E+00  8.5581315692E-01
  2.0324414716E+04  1.1560735460E+01  3.7522375181E+00  3.0926457162E+00  1.4785133379E+00  8.5751408649E-01
  2.0421404682E+04  1.1644912426E+01  3.7508707388E+00  3.1412458434E+00  1.4907035201E+00  8.5919595154E-01
  2.0518394649E+04  1.1729299104E+01  3.7495109299E+00  3.1903739346E+00  1.5028533531E+00  8.6085890746E-01
  2.0615384615E+04  1.1813895023E+01  3.7481580232E+00  3.2400331880E+00  1.5149618738E+00  8.6250311278E-01
  2.0712374582E+04  1.1898985051E+01  3.7468514014E+00  3.2902268062E+00  1.5270393969E+00  8.6412872887E-01
  2.0809364548E+04  1.1984496387E+01  3.7455801891E+00  3.3409579954E+00  1.5390823373E+00  8.6573591976E-01
  2.0906354515E+04  1.2070220326E+01  3.7443153163E+00  3.3922299663E+00  1.5510816433E+00  8.6732485183E-01
  2.1003344482E+04  1.2156156406E+01  3.7430567222E+00  3.4440459336E+00  1.5630364517E+00  8.6889569360E-01
  2.1100334448E+04  1.2242749607E+01  3.7418651382E+00  3.4964091161E+00  1.5749640663E+00  8.7044861314E-01
  2.1197324415E+04  1.2329604953E+01  3.7406857184E+00  3.5493227366E+00  1.5868478100E+00  8.7198376614E-01
  2.1294314381E+04  1.2416675760E+01  3.7395120520E+00  3.6027900221E+00  1.5986850194E+00  8.7350130570E-01
  2.1391304348E+04  1.2504044765E+01  3.7383553816E+00  3.6568142035E+00  1.6104784048E+00  8.7500138765E-01
  2.1488294314E+04  1.2592034530E+01  3.7372589531E+00  3.7113985158E+00  1.6222408419E+00  8.7648417030E-01
  2.1585284281E+04  1.2680243029E+01  3.7361677817E+00  3.7665461980E+00  1.6339549126E+00  8.7794981418E-01
  2.1682274247E+04  1.2768669818E+01  3.7350818188E+00  3.8222604932E+00  1.6456199200E+00  8.7939848182E-01
  2.1779264214E+04  1.2857494316E+01  3.7340251578E+00  3.8785446484E+00  1.6572429342E+00  8.8083033756E-01
  2.1876254181E+04  1.2946843099E+01  3.7330141590E+00  3.9354019145E+00  1.6688289033E+00  8.8224554730E-01
  2.1973244147E+04  1.3036413401E+01  3.7320079045E+00  3.9928355466E+00  1.6803642414E+00  8.8364427829E-01
  2.2070234114E+04  1.3126204791E+01  3.7310063513E+00  4.0508488035E+00  1.6918483412E+00  8.8502669326E-01
  2.2167224080E+04  1.3216460563E+01  3.7300418146E+00  4.1094449482E+00  1.7032914131E+00  8.8639294467E-01
  2.2264214047E+04  1.3307176554E+01  3.7291130749E+00  4.1686272474E+00  1.7146928616E+00  8.8774318556E-01
  2.2361204013E+04  1.3398116817E+01  3.7281886021E+00  4.2283995299E+00  1.7260418476E+00  8.8907757088E-01
  2.2458193980E+04  1.3489280930E+01  3.7272683581E+00  4.2888726725E+00  1.7373555017E+00  8.9039625723E-01
  2.2555183946E+04  1.3580943284E+01  3.7263884181E+00  4.3499444497E+00  1.7486279706E+00  8.9169940270E-01
  2.2652173913E+04  1.3673034181E+01  3.7255389514E+00  4.4116181745E+00  1.7598557465E+00  8.9298716665E-01
  2.2749163880E+04  1.3765352070E+01  3.7246933065E+00  4.4738971641E+00  1.7710292436E+00  8.9425970953E-01
  2.2846153846E+04  1.3857896538E+01  3.7238514501E+00  4.5367847396E+00  1.7821480161E+00  8.9551719271E-01
  2.2943143813E+04  1.3950940393E+01  3.7230489119E+00  4.6002842262E+00  1.7932244028E+00  8.9675977571E-01
  2.3040133779E+04  1.4044413406E+01  3.7222759026E+00  4.6643989528E+00  1.8042548548E+00  8.9798760796E-01
  2.3137123746E+04  1.4138116093E+01  3.7215063000E+00  4.7291322524E+00  1.8152297140E+00  8.9920083744E-01
  2.3234113712E+04  1.4232048053E+01  3.7207400749E+00  4.7944874621E+00  1.8261486102E+00  9.0039961350E-01
  2.3331103679E+04  1.4326448033E+01  3.7200080533E+00  4.8604679226E+00  1.8370226481E+00  9.0158408669E-01
  2.3428093645E+04  1.4421309880E+01  3.7193088438E+00  4.9270769787E+00  1.8478513230E+00  9.0275440856E-01
  2.3525083612E+04  1.4516404048E+01  3.7186126536E+00  4.9943179792E+00  1.8586233735E+00  9.0391073151E-01
  2.3622073579E+04  1.4611730146E+01  3.7179194573E+00  5.0621942765E+00  1.8693384996E+00  9.0505320860E-01
  2.3719063545E+04  1.4707460671E+01  3.7172513557E+00  5.1307092272E+00  1.8800049032E+00  9.0618199342E-01
  2.3816053512E+04  1.4803717582E+01  3.7166234353E+00  5.1998661914E+00  1.8906284085E+00  9.0729723692E-01
  2.3913043478E+04  1.4900209425E+01  3.7159981723E+00  5.2696685335E+00  1.9011945195E+00  9.0839908121E-01
  2.4010033445E+04  1.4996935816E+01  3.7153755447E+00  5.3401196214E+00  1.9117030012E+00  9.0948766761E-01
  2.4107023411E+04  1.5093971195E+01  3.7147650359E+00  5.4112228270E+00  1.9221573930E+00  9.1056313839E-01
  2.4204013378E+04  1.5191628915E+01  3.7142060300E+00  5.4829815259E+00  1.9325733157E+00  9.1162563657E-01
  2.4301003344E+04  1.5289524138E+01  3.7136493433E+00  5.5553990975E+00  1.9429313152E+00  9.1267530579E-01
  2.4397993311E+04  1.5387656488E+01  3.7130949570E+00  5.6284789253E+00  1.9532312161E+00  9.1371229016E-01
  2.4494983278E+04  1.5486025595E+01  3.7125428524E+00  5.7022243963E+00  1.9634728585E+00  9.1473673413E-01
  2.4591973244E+04  1.5585034808E+01  3.7120436265E+00  5.7766389012E+00  1.9736768806E+00  9.1574878209E-01
  2.4688963211E+04  1.5684338630E+01  3.7115532903E+00  5.8517258348E+00  1.9838254747E+00  9.1674857259E-01
  2.4785953177E+04  1.5783882119E+01  3.7110649410E+00  5.9274885953E+00  1.9939157169E+00  9.1773623881E-01
  2.4882943144E+04  1.5883664913E+01  3.7105785628E+00  6.0039305850E+00  2.0039475006E+00  9.1871191439E-01
  2.4979933110E+04  1.5983924736E+01  3.7101238068E+00  6.0810552095E+00  2.0139332539E+00  9.1967573350E-01
  2.5076923077E+04  1.6084641729E+01  3.7096976764E+00  6.1591252915E+00  2.0238999479E+00  9.2062783072E-01
  2.5173913043E+04  1.6185600887E+01  3.7092732397E+00  6.2379588353E+00  2.0338152310E+00  9.2156834094E-01
  2.5270903010E+04  1.6286801856E+01  3.7088504834E+00  6.3174923825E+00  2.0436716997E+00  9.2249739920E-01
  2.5367892977E+04  1.6388286374E+01  3.7084346019E+00  6.3977294255E+00  2.0534715635E+00  9.2341514093E-01
  2.5464882943E+04  1.6490419526E+01  3.7080704129E+00  6.4786734611E+00  2.0632344279E+00  9.2432171044E-01
  2.5561872910E+04  1.6592797286E+01  3.7077076439E+00  6.5603279897E+00  2.0729386486E+00  9.2521723468E-01
  2.5658862876E+04  1.6695419310E+01  3.7073462841E+00  6.6426965157E+00  2.0825842100E+00  9.2610183260E-01
  2.5755852843E+04  1.6798285253E+01  3.7069863227E+00  6.7257825475E+00  2.0921711078E+00  9.2697562391E-01
  2.5852842809E+04  1.6901654530E+01  3.7066594660E+00  6.8095895973E+00  2.1017135624E+00  9.2783872898E-01
  2.5949832776E+04  1.7005452836E+01  3.7063561401E+00  6.8941211812E+00  2.1112075919E+00  9.2869126866E-01
  2.6046822742E+04  1.7109497798E+01  3.7060539705E+00  6.9793808194E+00  2.1206432731E+00  9.2953336418E-01
  2.6143812709E+04  1.7213789081E+01  3.7057529485E+00  7.0653720355E+00  2.1300206409E+00  9.3036513701E-01
  2.6240802676E+04  1.7318327272E+01  3.7054531771E+00  7.1520983575E+00  2.1393397916E+00  9.3118670879E-01
  2.6337792642E+04  1.7423547509E+01  3.7052071782E+00  7.2395633168E+00  2.1486250678E+00  9.3199820118E-01
  2.6434782609E+04  1.7529016736E+01  3.7049620997E+00  7.3277704488E+00  2.1578524456E+00  9.3279973577E-01
  2.6531772575E+04  1.7634734627E+01  3.7047179349E+00  7.4167232929E+00  2.1670219949E+00  9.3359143399E-01
  2.6628762542E+04  1.7740700854E+01  3.7044746770E+00  7.5064253921E+00  2.1761337949E+00  9.3437341704E-01
  2.6725752508E+04  1.7847060528E+01  3.7042497761E+00  7.5968802933E+00  2.1851961884E+00  9.3514580577E-01
  2.6822742475E+04  1.7953954797E+01  3.7040597902E+00  7.6880915470E+00  2.1942173262E+00  9.3590872062E-01
  2.6919732441E+04  1.8061100010E+01  3.7038704998E+00  7.7800627079E+00  2.2031812395E+00  9.3666228139E-01
  2.7016722408E+04  1.8168495848E+01  3.7036818998E+00  7.8727973342E+00  2.2120880375E+00  9.3740660052E-01
  2.7113712375E+04  1.8276141995E+01  3.7034939852E+00  7.9662989877E+00  2.2209378372E+00  9.3814178163E-01
  2.7210702341E+04  1.8384290060E+01  3.7033366885E+00  8.0605712344E+00  2.2297453214E+00  9.3886792821E-01
  2.7307692308E+04  1.8492862766E+01  3.7032003826E+00  8.1556176438E+00  2.2385061937E+00  9.3958514413E-01
  2.7404682274E+04  1.8601688323E+01  3.7030645650E+00  8.2514417890E+00  2.2472106854E+00  9.4029353347E-01
  2.7501672241E+04  1.8710766422E+01  3.7029292321E+00  8.3480472471E+00  2.2558589391E+00  9.4099320050E-01
  2.7598662207E+04  1.8820096755E+01  3.7027943806E+00  8.4454375989E+00  2.2644511039E+00  9.4168424952E-01
  2.7695652174E+04  1.8930000001E+01  3.7026978137E+00  8.5436164286E+00  2.2730062107E+00  9.4236678480E-01
  2.7792642140E+04  1.9040254845E+01  3.7026129891E+00  8.6425873245E+00  2.2815114367E+00  9.4304091051E-01
  2.7889632107E+04  1.9150764401E+01  3.7025284619E+00  8.7423538784E+00  2.2899612689E+00  9.4370673062E-01
  2.7986622074E+04  1.9261528368E+01  3.7024442301E+00  8.8429196857E+00  2.2983558780E+00  9.4436434882E-01
  2.8083612040E+04  1.9372546447E+01  3.7023602916E+00  8.9442883458E+00  2.3066954404E+00  9.4501386848E-01
  2.8180602007E+04  1.9484171722E+01  3.7023179460E+00  9.0464634613E+00  2.3150012746E+00  9.4565539254E-01
  2.8277591973E+04  1.9596111706E+01  3.7022825283E+00  9.1494486389E+00  2.3232560935E+00  9.4628902351E-01
  2.8374581940E+04  1.9708308214E+01  3.7022472322E+00  9.2532474886E+00  2.3314566238E+00  9.4691486323E-01
  2.8471571906E+04  1.9820760951E+01  3.7022120569E+00  9.3578636243E+00  2.3396030597E+00  9.4753300779E-01
  2.8568561873E+04  1.9933469629E+01  3.7021770015E+00  9.4633006634E+00  2.3476955999E+00  9.4814354634E-01
  2.8665551839E+04  2.0046784021E+01  3.7021827116E+00  9.5695622270E+00  2.3557557397E+00  9.4874656777E-01
  2.8762541806E+04  2.0160411450E+01  3.7021947414E+00  9.6766519397E+00  2.3637658966E+00  9.4934216110E-01
  2.8859531773E+04  2.0274297161E+01  3.7022067307E+00  9.7845734298E+00  2.3717229664E+00  9.4993041540E-01
  2.8956521739E+04  2.0388440871E+01  3.7022186799E+00  9.8933303291E+00  2.3796271623E+00  9.5051141968E-01
  2.9053511706E+04  2.0502842296E+01  3.7022305891E+00  1.0002926273E+01  2.3874787017E+00  9.5108526290E-01
  2.9150501672E+04  2.0617813321E+01  3.7022785111E+00  1.0113364901E+01  2.3952971096E+00  9.5165203379E-01
  2.9247491639E+04  2.0733129802E+01  3.7023361355E+00  1.0224649855E+01  2.4030687528E+00  9.5221182089E-01
  2.9344481605E+04  2.0848706272E+01  3.7023935700E+00  1.0336784782E+01  2.4107885870E+00  9.5276471243E-01
  2.9441471572E+04  2.0964542456E+01  3.7024508159E+00  1.0449773331E+01  2.4184568408E+00  9.5331079630E-01
  2.9538461538E+04  2.1080638079E+01  3.7025078743E+00  1.0563619155E+01  2.4260737459E+00  9.5385015999E-01
  2.9635451505E+04  2.1197233871E+01  3.7025924663E+00  1.0678325912E+01  2.4336546896E+00  9.5438289052E-01
  2.9732441472E+04  2.1314240323E+01  3.7026939312E+00  1.0793897261E+01  2.4411942797E+00  9.5490907444E-01
  2.9829431438E+04  2.1431508418E+01  3.7027950685E+00  1.0910336867E+01  2.4486833978E+00  9.5542879544E-01
  2.9926421405E+04  2.1549037887E+01  3.7028958802E+00  1.1027648396E+01  2.4561222845E+00  9.5594213050E-01
  3.0023411371E+04  2.1666828462E+01  3.7029963684E+00  1.1145945846E+01  2.4635165723E+00  9.5644915557E-01
  3.0120401338E+04  2.1785018345E+01  3.7031123643E+00  1.1265474461E+01  2.4708867111E+00  9.5694994660E-01
  3.0217391304E+04  2.1903716061E+01  3.7032559846E+00  1.1385894391E+01  2.4782228205E+00  9.5744457950E-01
  3.0314381271E+04  2.2022677025E+01  3.7033991501E+00  1.1507209388E+01  2.4855095619E+00  9.5793313006E-01
  3.0411371237E+04  2.2141900975E+01  3.7035418638E+00  1.1629423209E+01  2.4927471863E+00  9.5841567390E-01
  3.0508361204E+04  2.2261387651E+01  3.7036841285E+00  1.1752539615E+01  2.4999359463E+00  9.5889228644E-01
  3.0605351171E+04  2.2381141970E+01  3.7038265310E+00  1.1876562371E+01  2.5070764293E+00  9.5936304280E-01
  3.0702341137E+04  2.2501534246E+01  3.7040106523E+00  1.2001495243E+01  2.5141926784E+00  9.5982801780E-01
  3.0799331104E+04  2.2622191344E+01  3.7041942019E+00  1.2127342003E+01  2.5212609774E+00  9.6028728592E-01
  3.0896321070E+04  2.2743113011E+01  3.7043771835E+00  1.2254106427E+01  2.5282815836E+00  9.6074092122E-01
  3.0993311037E+04  2.2864298993E+01  3.7045596006E+00  1.2381792293E+01  2.5352547560E+00  9.6118899733E-01
  3.1090301003E+04  2.2985749039E+01  3.7047414566E+00  1.2510403384E+01  2.5421807546E+00  9.6163158724E-01
  3.1187290970E+04  2.3107679274E+01  3.7049467116E+00  1.2639943486E+01  2.5490738145E+00  9.6206875987E-01
