#[MATERIAL DEFINITION FOR MC-GPU: interaction mean free path and sampling data from PENELOPE 2006]
#[MATERIAL NAME]
# LEAD                                                          
#[NOMINAL DENSITY (g/cm^3)]
#  11.35000000
#[NUMBER OF DATA VALUES]
#   1495
#[MEAN FREE PATHS (cm) (ie, average distance between interactions)]
#[Energy (eV)     | Rayleigh        | Compton         | Photoelectric   | TOTAL (+pair prod) (cm) | Rayleigh: max cumul prob F^2]
  5.0000000000E+03  1.0845749882E-02  2.8589732081E+00  1.2187993804E-04  1.2052044254E-04  1.1087780167E-01
  5.0969899666E+03  1.0960778450E-02  2.8174042719E+00  1.2779893356E-04  1.2632035144E-04  1.1396144288E-01
  5.1939799331E+03  1.1076640386E-02  2.7774412405E+00  1.3388564201E-04  1.3228036535E-04  1.1704975254E-01
  5.2909698997E+03  1.1193348816E-02  2.7389866874E+00  1.4014155050E-04  1.3840167002E-04  1.2014170734E-01
  5.3879598662E+03  1.1310915126E-02  2.7019507119E+00  1.4656813145E-04  1.4468543256E-04  1.2323634104E-01
  5.4849498328E+03  1.1429349002E-02  2.6662502486E+00  1.5317257704E-04  1.5113838476E-04  1.2633271203E-01
  5.5819397993E+03  1.1548658475E-02  2.6318084517E+00  1.6001965220E-04  1.5782323774E-04  1.2942988019E-01
  5.6789297659E+03  1.1668849954E-02  2.5985541448E+00  1.6704691019E-04  1.6467884290E-04  1.3252695219E-01
  5.7759197324E+03  1.1789928250E-02  2.5664213270E+00  1.7425589371E-04  1.7170640349E-04  1.3562308476E-01
  5.8729096990E+03  1.1911896608E-02  2.5353487302E+00  1.8164813218E-04  1.7890710534E-04  1.3871747014E-01
  5.9698996656E+03  1.2034756712E-02  2.5052794229E+00  1.8922514214E-04  1.8628211721E-04  1.4180928902E-01
  6.0668896321E+03  1.2158508244E-02  2.4761605915E+00  1.9697597823E-04  1.9382053747E-04  1.4489775684E-01
  6.1638795987E+03  1.2283148111E-02  2.4479434352E+00  2.0490800094E-04  2.0152921278E-04  1.4798213124E-01
  6.2608695652E+03  1.2408670599E-02  2.4205827913E+00  2.1302808899E-04  2.0941449792E-04  1.5106171050E-01
  6.3578595318E+03  1.2535068586E-02  2.3940364944E+00  2.2133768425E-04  2.1747747415E-04  1.5413583198E-01
  6.4548494983E+03  1.2662446475E-02  2.3682714095E+00  2.2983821724E-04  2.2571924310E-04  1.5720386874E-01
  6.5518394649E+03  1.2790829183E-02  2.3432513823E+00  2.3863287903E-04  2.3423893171E-04  1.6026519446E-01
  6.6488294314E+03  1.2920094395E-02  2.3189350271E+00  2.4766556866E-04  2.4298189269E-04  1.6331920031E-01
  6.7458193980E+03  1.3050230724E-02  2.2952897708E+00  2.5690189489E-04  2.5191460378E-04  1.6636531344E-01
  6.8428093645E+03  1.3181225509E-02  2.2722850575E+00  2.6634342168E-04  2.6103821532E-04  1.6940299339E-01
  6.9397993311E+03  1.3313064799E-02  2.2498922057E+00  2.7599170242E-04  2.7035386183E-04  1.7243173085E-01
  7.0367892977E+03  1.3445747105E-02  2.2280848364E+00  2.8586216300E-04  2.7987597567E-04  1.7545104637E-01
  7.1337792642E+03  1.3579672633E-02  2.2068542631E+00  2.9596659479E-04  2.8961563159E-04  1.7846048614E-01
  7.2307692308E+03  1.3714428157E-02  2.1861607280E+00  3.0628447735E-04  2.9955259805E-04  1.8145960556E-01
  7.3277591973E+03  1.3849992878E-02  2.1659824657E+00  3.1681736582E-04  3.0968798259E-04  1.8444798098E-01
  7.4247491639E+03  1.3986345047E-02  2.1462988538E+00  3.2756680572E-04  3.2002287712E-04  1.8742521433E-01
  7.5217391304E+03  1.4123713683E-02  2.1270993639E+00  3.3853433314E-04  3.3055849601E-04  1.9039093214E-01
  7.6187290970E+03  1.4262173322E-02  2.1083680976E+00  3.4972147491E-04  3.4129597506E-04  1.9334478440E-01
  7.7157190635E+03  1.4401389728E-02  2.0900759560E+00  3.6112974879E-04  3.5223620113E-04  1.9628644370E-01
  7.8127090301E+03  1.4541337943E-02  2.0722061736E+00  3.7276066364E-04  3.6338020832E-04  1.9921560417E-01
  7.9096989967E+03  1.4682400046E-02  2.0547559997E+00  3.8461571955E-04  3.7472928140E-04  2.0213198057E-01
  8.0066889632E+03  1.4824461108E-02  2.0377064463E+00  3.9670336422E-04  3.8629099315E-04  2.0503530744E-01
  8.1036789298E+03  1.4967214333E-02  2.0210340910E+00  4.0911472439E-04  3.9815104308E-04  2.0792533818E-01
  8.2006688963E+03  1.5110761176E-02  2.0047293062E+00  4.2175977322E-04  4.1022362763E-04  2.1080183515E-01
  8.2976588629E+03  1.5255620825E-02  1.9887964785E+00  4.3464006877E-04  4.2251020989E-04  2.1366456871E-01
  8.3946488294E+03  1.5401120980E-02  1.9732029719E+00  4.4775716101E-04  4.3501135315E-04  2.1651334086E-01
  8.4916387960E+03  1.5547259328E-02  1.9579376587E+00  4.6111259193E-04  4.4772808345E-04  2.1934796949E-01
  8.5886287625E+03  1.5694842275E-02  1.9430152054E+00  4.7470789567E-04  4.6066211293E-04  2.2216828740E-01
  8.6856187291E+03  1.5843009822E-02  1.9283987367E+00  4.8854459865E-04  4.7381375518E-04  2.2497414153E-01
  8.7826086957E+03  1.5991837266E-02  1.9140808479E+00  5.0262421970E-04  4.8718406968E-04  2.2776539234E-01
  8.8795986622E+03  1.6142058866E-02  1.9000749804E+00  5.1694827019E-04  5.0077475051E-04  2.3054191319E-01
  8.9765886288E+03  1.6292805728E-02  1.8863454483E+00  5.3151825411E-04  5.1458598151E-04  2.3330358972E-01
  9.0735785953E+03  1.6444414951E-02  1.8728939553E+00  5.4640520547E-04  5.2868416329E-04  2.3605031926E-01
  9.1705685619E+03  1.6597179894E-02  1.8597213923E+00  5.6156678103E-04  5.4302936841E-04  2.3878201029E-01
  9.2675585284E+03  1.6750405657E-02  1.8467986683E+00  5.7698289035E-04  5.5760159092E-04  2.4149858191E-01
  9.3645484950E+03  1.6904875447E-02  1.8341419430E+00  5.9265507560E-04  5.7240269125E-04  2.4419996327E-01
  9.4615384615E+03  1.7060070850E-02  1.8217283972E+00  6.0858487212E-04  5.8743309434E-04  2.4688609317E-01
  9.5585284281E+03  1.7215909779E-02  1.8095484301E+00  6.2477380849E-04  6.0269367057E-04  2.4955691952E-01
  9.6555183946E+03  1.7373056395E-02  1.7976153912E+00  6.4122340661E-04  6.1818621465E-04  2.5221239888E-01
  9.7525083612E+03  1.7530561295E-02  1.7858943267E+00  6.5793518183E-04  6.3391050585E-04  2.5485249610E-01
  9.8494983278E+03  1.7689375627E-02  1.7744073164E+00  6.7491064305E-04  6.4986872842E-04  2.5747718382E-01
  9.9464882943E+03  1.7848776091E-02  1.7631269845E+00  6.9215129276E-04  6.6606088080E-04  2.6008644211E-01
  1.0043478261E+04  1.8009039287E-02  1.7520555789E+00  7.0972255344E-04  6.8254739309E-04  2.6268025852E-01
  1.0140468227E+04  1.8170311158E-02  1.7411922542E+00  7.2764484510E-04  6.9934668285E-04  2.6525863525E-01
  1.0237458194E+04  1.8332050833E-02  1.7305154743E+00  7.4584263557E-04  7.1638752696E-04  2.6782158384E-01
  1.0334448161E+04  1.8495163460E-02  1.7200475233E+00  7.6431748947E-04  7.3367227647E-04  2.7036912121E-01
  1.0431438127E+04  1.8658485964E-02  1.7097486732E+00  7.8307096544E-04  7.5120008009E-04  2.7290126933E-01
  1.0528428094E+04  1.8823322634E-02  1.6996535080E+00  8.0210461621E-04  7.6897398843E-04  2.7541805499E-01
  1.0625418060E+04  1.8988411654E-02  1.6897196204E+00  8.2141998867E-04  7.8699287275E-04  2.7791950946E-01
  1.0722408027E+04  1.9154776222E-02  1.6799734507E+00  8.4101862393E-04  8.0525940118E-04  2.8040566831E-01
  1.0819397993E+04  1.9321596900E-02  1.6703861986E+00  8.6090205744E-04  8.2377307591E-04  2.8287657109E-01
  1.0916387960E+04  1.9489509990E-02  1.6609728877E+00  8.8107181903E-04  8.4253595597E-04  2.8533226118E-01
  1.1013377926E+04  1.9658026653E-02  1.6517150073E+00  9.0152943295E-04  8.6154805367E-04  2.8777278549E-01
  1.1110367893E+04  1.9827507989E-02  1.6426194634E+00  9.2227641802E-04  8.8081095541E-04  2.9019819431E-01
  1.1207357860E+04  1.9997684175E-02  1.6336746696E+00  9.4331428763E-04  9.0032503222E-04  2.9260854108E-01
  1.1304347826E+04  2.0168752615E-02  1.6248827624E+00  9.6464454982E-04  9.2009156585E-04  2.9500388218E-01
  1.1401337793E+04  2.0340551103E-02  1.6162356724E+00  9.8626870736E-04  9.4011110204E-04  2.9738427679E-01
  1.1498327759E+04  2.0513224669E-02  1.6077341575E+00  1.0081882578E-03  9.6038481949E-04  2.9974978671E-01
  1.1595317726E+04  2.0686607502E-02  1.5993702215E+00  1.0304046936E-03  9.8091321999E-04  3.0210048105E-01
  1.1692307692E+04  2.0860903408E-02  1.5911466718E+00  1.0529195020E-03  1.0016976164E-03  3.0443643696E-01
  1.1789297659E+04  2.1035831927E-02  1.5830521103E+00  1.0757341653E-03  1.0227382112E-03  3.0675773311E-01
  1.1886287625E+04  2.1211766603E-02  1.5750948542E+00  1.0988501608E-03  1.0440367264E-03  3.0906444962E-01
  1.1983277592E+04  2.1388201468E-02  1.5672566002E+00  1.1222689610E-03  1.0655927708E-03  3.1135666799E-01
  1.2080267559E+04  2.1565790585E-02  1.5595546648E+00  1.1459920333E-03  1.0874087903E-03  3.1363447095E-01
  1.2177257525E+04  2.1743691810E-02  1.5519603121E+00  1.1700208405E-03  1.1094834653E-03  3.1589794235E-01
  1.2274247492E+04  2.1922950299E-02  1.5445033718E+00  1.1943568406E-03  1.1318203219E-03  3.1814716710E-01
  1.2371237458E+04  2.2102277277E-02  1.5371411273E+00  1.2190014868E-03  1.1544167344E-03  3.2038223103E-01
  1.2468227425E+04  2.2283219318E-02  1.5299194577E+00  1.2439562279E-03  1.1772777089E-03  3.2260322085E-01
  1.2565217391E+04  2.2464223349E-02  1.5227872833E+00  1.2692929522E-03  1.2004627443E-03  3.2481022400E-01
  1.2662207358E+04  2.2646568813E-02  1.5157825698E+00  1.2949798253E-03  1.2239462730E-03  3.2700332864E-01
  1.2759197324E+04  2.2829280809E-02  1.5088722005E+00  1.3209845590E-03  1.2476960340E-03  3.2918262351E-01
  1.2856187291E+04  2.3012966682E-02  1.5020734670E+00  1.3473086253E-03  1.2717146082E-03  3.3134819795E-01
  1.2953177258E+04  2.3197396044E-02  1.4953765975E+00  1.3739534922E-03  1.2960020996E-03  3.3350014531E-01
  1.3050167224E+04  2.3382378102E-02  1.4887739227E+00  5.5631132843E-04  5.4318495109E-04  3.3563856339E-01
  1.3147157191E+04  2.3568533397E-02  1.4822827095E+00  5.6755307652E-04  5.5400009665E-04  3.3776354988E-01
  1.3244147157E+04  2.3754786131E-02  1.4758671995E+00  5.7893685521E-04  5.6494671464E-04  3.3987520237E-01
  1.3341137124E+04  2.3942656345E-02  1.4695736259E+00  5.9046339911E-04  5.7602624689E-04  3.4197361838E-01
  1.3438127090E+04  2.4130654412E-02  1.4633527784E+00  6.0213344121E-04  5.8723841718E-04  3.4405889523E-01
  1.3535117057E+04  2.4319727578E-02  1.4572332340E+00  6.1394771291E-04  5.9858435475E-04  3.4613113006E-01
  1.3632107023E+04  2.4509477968E-02  1.4512002188E+00  6.2590694407E-04  6.1006439775E-04  3.4819041979E-01
  1.3729096990E+04  2.4699709056E-02  1.4452461659E+00  6.3801186296E-04  6.2167898851E-04  3.5023686108E-01
  1.3826086957E+04  2.4891218103E-02  1.4393945120E+00  6.5026319632E-04  6.3342920515E-04  3.5227055028E-01
  1.3923076923E+04  2.5082857704E-02  1.4336072093E+00  6.6266166936E-04  6.4531486990E-04  3.5429158345E-01
  1.4020066890E+04  2.5275835461E-02  1.4279213236E+00  6.7520800576E-04  6.5733734420E-04  3.5630005628E-01
  1.4117056856E+04  2.5469250275E-02  1.4223062748E+00  6.8790292774E-04  6.6949658654E-04  3.5829606445E-01
  1.4214046823E+04  2.5663290082E-02  1.4167669503E+00  7.0074715598E-04  6.8179327600E-04  3.6027970688E-01
  1.4311036789E+04  2.5858484983E-02  1.4113184855E+00  7.1374140972E-04  6.9422834963E-04  3.6225108341E-01
  1.4408026756E+04  2.6053831068E-02  1.4059275637E+00  7.2688640672E-04  7.0680163366E-04  3.6421029317E-01
  1.4505016722E+04  2.6250520709E-02  1.4006310157E+00  7.4018286331E-04  7.1951455801E-04  3.6615743456E-01
  1.4602006689E+04  2.6447661596E-02  1.3953986731E+00  7.5363149437E-04  7.3236700839E-04  3.6809260531E-01
  1.4698996656E+04  2.6645315860E-02  1.3902315773E+00  7.6723301335E-04  7.4535956734E-04  3.7001590239E-01
  1.4795986622E+04  2.6844255031E-02  1.3851528260E+00  7.8098813230E-04  7.5849339186E-04  3.7192742208E-01
  1.4892976589E+04  2.7043365146E-02  1.3801256304E+00  7.9489756188E-04  7.7176813288E-04  3.7382725994E-01
  1.4989966555E+04  2.7243568776E-02  1.3751784727E+00  8.0896201133E-04  7.8518507846E-04  3.7571551078E-01
  1.5086956522E+04  2.7444490148E-02  1.3702977880E+00  8.2331062315E-04  7.9886538347E-04  3.7759226870E-01
  1.5183946488E+04  2.7645591539E-02  1.3654655357E+00  8.3783437179E-04  8.1270563961E-04  3.7945762703E-01
  1.5280936455E+04  2.7848294659E-02  1.3607257777E+00  6.1031333895E-04  5.9696276492E-04  3.8131167928E-01
  1.5377926421E+04  2.8051219340E-02  1.3560333008E+00  6.2057566653E-04  6.0687213659E-04  3.8315452093E-01
  1.5474916388E+04  2.8254734875E-02  1.3513990467E+00  6.3094440125E-04  6.1688108269E-04  3.8498624685E-01
  1.5571906355E+04  2.8459484271E-02  1.3468420083E+00  6.4141996912E-04  6.2699026229E-04  3.8680695102E-01
  1.5668896321E+04  2.8664432246E-02  1.3423284896E+00  6.5200279519E-04  6.3719951515E-04  3.8861672649E-01
  1.5765886288E+04  2.8870341758E-02  1.3378817151E+00  6.6269330353E-04  6.4750955999E-04  3.9041566540E-01
  1.5862876254E+04  2.9077124868E-02  1.3334975845E+00  5.8236698173E-04  5.7068781199E-04  3.9220385899E-01
  1.5959866221E+04  2.9284115038E-02  1.3291544135E+00  5.9144618952E-04  5.7948458136E-04  3.9398139760E-01
  1.6056856187E+04  2.9492365505E-02  1.3248842864E+00  6.0061064704E-04  5.8836196066E-04  3.9574837067E-01
  1.6153846154E+04  2.9701200367E-02  1.3206648627E+00  6.0986063253E-04  5.9731991221E-04  3.9750486680E-01
  1.6250836120E+04  2.9910250584E-02  1.3164840147E+00  6.1919642349E-04  6.0635850760E-04  3.9925097363E-01
  1.6347826087E+04  3.0120787882E-02  1.3123803404E+00  6.2861829663E-04  6.1547850367E-04  4.0098677581E-01
  1.6444816054E+04  3.0331691507E-02  1.3083179744E+00  6.3812652791E-04  6.2467965935E-04  4.0271236092E-01
  1.6541806020E+04  3.0542831705E-02  1.3042923658E+00  6.4772139252E-04  6.3396213625E-04  4.0442781811E-01
  1.6638795987E+04  3.0755587593E-02  1.3003451303E+00  6.5740316490E-04  6.4332676285E-04  4.0613323553E-01
  1.6735785953E+04  3.0968575996E-02  1.2964326788E+00  6.6717211877E-04  6.5277315649E-04  4.0782870031E-01
  1.6832775920E+04  3.1181892508E-02  1.2925574675E+00  6.7702852709E-04  6.6230157389E-04  4.0951429860E-01
  1.6929765886E+04  3.1396740428E-02  1.2887554449E+00  6.8697266210E-04  6.7191278991E-04  4.1119011557E-01
  1.7026755853E+04  3.1611828656E-02  1.2849862297E+00  6.9700479532E-04  6.8160643197E-04  4.1285623542E-01
  1.7123745819E+04  3.1827265196E-02  1.2812526734E+00  7.0712519754E-04  6.9138276217E-04  4.1451274142E-01
  1.7220735786E+04  3.2044219411E-02  1.2775894848E+00  7.1733413885E-04  7.0124256265E-04  4.1615971589E-01
  1.7317725753E+04  3.2261421569E-02  1.2739572553E+00  7.2763188863E-04  7.1118544073E-04  4.1779724022E-01
  1.7414715719E+04  3.2478921093E-02  1.2703570785E+00  7.3801871555E-04  7.2121162885E-04  4.1942539492E-01
  1.7511705686E+04  3.2697995006E-02  1.2668267285E+00  7.4851095494E-04  7.3133732482E-04  4.2104425958E-01
  1.7608695652E+04  3.2917324345E-02  1.2633256076E+00  7.5921157082E-04  7.4166006871E-04  4.2265391288E-01
  1.7705685619E+04  3.3136907999E-02  1.2598533148E+00  7.7000512105E-04  7.5206956267E-04  4.2425443268E-01
  1.7802675585E+04  3.3358035936E-02  1.2564476206E+00  7.8089189706E-04  7.6256671993E-04  4.2584589593E-01
  1.7899665552E+04  3.3579505491E-02  1.2530718893E+00  7.9187218956E-04  7.7315114379E-04  4.2742837875E-01
  1.7996655518E+04  3.3801236700E-02  1.2497233966E+00  8.0294628861E-04  7.8382301565E-04  4.2900195641E-01
  1.8093645485E+04  3.4024310092E-02  1.2464332761E+00  8.1411448357E-04  7.9458316010E-04  4.3056670338E-01
  1.8190635452E+04  3.4247932443E-02  1.2431774505E+00  8.2537706314E-04  8.0543137616E-04  4.3212269339E-01
  1.8287625418E+04  3.4471823656E-02  1.2399473754E+00  8.3673431537E-04  8.1636773092E-04  4.3367000189E-01
  1.8384615385E+04  3.4696783818E-02  1.2367657083E+00  8.4818652762E-04  8.2739290956E-04  4.3520870434E-01
  1.8481605351E+04  3.4922570725E-02  1.2336246386E+00  8.5973398663E-04  8.3850700784E-04  4.3673887507E-01
  1.8578595318E+04  3.5148633577E-02  1.2305079249E+00  8.7137697845E-04  8.4970992837E-04  4.3826058747E-01
  1.8675585284E+04  3.5375421272E-02  1.2274279895E+00  8.8311578853E-04  8.6100216081E-04  4.3977391407E-01
  1.8772575251E+04  3.5603383695E-02  1.2243968362E+00  8.9495070164E-04  8.7238420943E-04  4.4127892648E-01
  1.8869565217E+04  3.5831629019E-02  1.2213887311E+00  9.0688200193E-04  8.8385575690E-04  4.4277569546E-01
  1.8966555184E+04  3.6060184540E-02  1.2184041748E+00  9.1890997293E-04  8.9541703554E-04  4.4426429091E-01
  1.9063545151E+04  3.6290332650E-02  1.2154783857E+00  9.3103489754E-04  9.0706908113E-04  4.4574478191E-01
  1.9160535117E+04  3.6520770500E-02  1.2125744168E+00  9.4325705802E-04  9.1881129534E-04  4.4721723669E-01
  1.9257525084E+04  3.6751496986E-02  1.2096919964E+00  9.5557673604E-04  9.3064389016E-04  4.4868172267E-01
  1.9354515050E+04  3.6983376952E-02  1.2068545179E+00  9.6799421263E-04  9.4256765356E-04  4.5013830649E-01
  1.9451505017E+04  3.7216016613E-02  1.2040504732E+00  9.8050976824E-04  9.5458255326E-04  4.5158705398E-01
  1.9548494983E+04  3.7448951634E-02  1.2012668419E+00  9.9312368269E-04  9.6668849434E-04  4.5302803022E-01
  1.9645484950E+04  3.7682474144E-02  1.1985112881E+00  1.0058362352E-03  9.7888588866E-04  4.5446129951E-01
  1.9742474916E+04  3.7917324150E-02  1.1958031966E+00  1.0186477045E-03  9.9117547190E-04  4.5588692541E-01
  1.9839464883E+04  3.8152476127E-02  1.1931144511E+00  1.0315583685E-03  1.0035567508E-03  4.5730497074E-01
  1.9936454849E+04  3.8387928983E-02  1.1904448195E+00  1.0445685047E-03  1.0160299317E-03  4.5871549774E-01
  2.0033444816E+04  3.8624648354E-02  1.1878196143E+00  1.0577287974E-03  1.0286435983E-03  4.6011856949E-01
  2.0130434783E+04  3.8862025173E-02  1.1852220471E+00  1.0710868781E-03  1.0414422512E-03  4.6151424878E-01
  2.0227424749E+04  3.9099709375E-02  1.1826426046E+00  1.0845482347E-03  1.0543361607E-03  4.6290259756E-01
  2.0324414716E+04  3.9337943337E-02  1.1800873989E+00  1.0981131649E-03  1.0673257325E-03  4.6428367699E-01
  2.0421404682E+04  3.9577553269E-02  1.1775773812E+00  1.1117819654E-03  1.0804118279E-03  4.6565754751E-01
  2.0518394649E+04  3.9817476993E-02  1.1750845574E+00  1.1255549327E-03  1.0935938733E-03  4.6702426881E-01
  2.0615384615E+04  4.0057713432E-02  1.1726087291E+00  1.1394323626E-03  1.1068720874E-03  4.6838389984E-01
  2.0712374582E+04  4.0299014376E-02  1.1701687544E+00  1.1534145504E-03  1.1202472874E-03  4.6973649885E-01
  2.0809364548E+04  4.0541185506E-02  1.1677591312E+00  1.1675017907E-03  1.1337195566E-03  4.7108212339E-01
  2.0906354515E+04  4.0783675670E-02  1.1653656403E+00  1.1816943776E-03  1.1472886792E-03  4.7242083031E-01
  2.1003344482E+04  4.1026483805E-02  1.1629880995E+00  1.1959926048E-03  1.1609548708E-03  4.7375267579E-01
  2.1100334448E+04  4.1270787149E-02  1.1606553993E+00  1.2103967653E-03  1.1747193307E-03  4.7507771534E-01
  2.1197324415E+04  4.1515538180E-02  1.1583410623E+00  1.2249071516E-03  1.1885814234E-03  4.7639600383E-01
  2.1294314381E+04  4.1760613414E-02  1.1560418737E+00  1.2395240556E-03  1.2025412613E-03  4.7770759545E-01
  2.1391304348E+04  4.2006232717E-02  1.1537630244E+00  1.2542477688E-03  1.2165992483E-03  4.7901254380E-01
  2.1488294314E+04  4.2253251117E-02  1.1515248266E+00  1.2690785821E-03  1.2307563529E-03  4.8031090182E-01
  2.1585284281E+04  4.2500599863E-02  1.1493010210E+00  1.2840167857E-03  1.2450118727E-03  4.8160272241E-01
  2.1682274247E+04  4.2748277908E-02  1.1470914512E+00  1.2990626696E-03  1.2593660183E-03  4.8288805871E-01
  2.1779264214E+04  4.2996763310E-02  1.1449073034E+00  1.3142165231E-03  1.2738194339E-03  4.8416696321E-01
  2.1876254181E+04  4.3246391351E-02  1.1427560662E+00  1.3294786349E-03  1.2883726518E-03  4.8543948776E-01
  2.1973244147E+04  4.3496354754E-02  1.1406183608E+00  1.3448492933E-03  1.3030251574E-03  4.8670568359E-01
  2.2070234114E+04  4.3746652485E-02  1.1384940431E+00  1.3603287862E-03  1.3177771582E-03  4.8796560129E-01
  2.2167224080E+04  4.3997934862E-02  1.1363980273E+00  1.3759174006E-03  1.3326294794E-03  4.8921929087E-01
  2.2264214047E+04  4.4250188704E-02  1.1343295550E+00  1.3916154235E-03  1.3475823357E-03  4.9046680172E-01
  2.2361204013E+04  4.4502782854E-02  1.1322738146E+00  1.4074238032E-03  1.3626359621E-03  4.9170818267E-01
  2.2458193980E+04  4.4755716293E-02  1.1302306731E+00  1.4234700974E-03  1.3779098181E-03  4.9294348196E-01
  2.2555183946E+04  4.5009725015E-02  1.1282166460E+00  1.4396290045E-03  1.3932870712E-03  4.9417274726E-01
  2.2652173913E+04  4.5264619976E-02  1.1262270196E+00  1.4559008257E-03  1.4087677726E-03  4.9539602568E-01
  2.2749163880E+04  4.5519860128E-02  1.1242493804E+00  1.4722858613E-03  1.4243516073E-03  4.9661336381E-01
  2.2846153846E+04  4.5775444464E-02  1.1222836054E+00  1.4887844114E-03  1.4400387897E-03  4.9782480768E-01
  2.2943143813E+04  4.6032107504E-02  1.1203458162E+00  1.5053967754E-03  1.4558302963E-03  4.9903040279E-01
  2.3040133779E+04  4.6289658083E-02  1.1184313705E+00  1.5221232523E-03  1.4717261652E-03  5.0023019355E-01
  2.3137123746E+04  4.6547558671E-02  1.1165282178E+00  1.5389641407E-03  1.4877260581E-03  5.0142422382E-01
  2.3234113712E+04  4.6805808273E-02  1.1146362445E+00  1.5559197387E-03  1.5038301864E-03  5.0261253885E-01
  2.3331103679E+04  4.7065052327E-02  1.1127693035E+00  1.5729903439E-03  1.5200394610E-03  5.0379518344E-01
  2.3428093645E+04  4.7325272215E-02  1.1109266066E+00  1.5901762533E-03  1.5363540948E-03  5.0497220184E-01
  2.3525083612E+04  4.7585846866E-02  1.1090945551E+00  1.6074777636E-03  1.5527736326E-03  5.0614363779E-01
  2.3622073579E+04  4.7846775300E-02  1.1072730440E+00  1.6248951709E-03  1.5692982830E-03  5.0730953449E-01
  2.3719063545E+04  4.8108525901E-02  1.1054718942E+00  1.6424287711E-03  1.5859287843E-03  5.0846993466E-01
  2.3816053512E+04  4.8371427996E-02  1.1036977292E+00  1.6600788593E-03  1.6026657372E-03  5.0962488050E-01
  2.3913043478E+04  4.8634689548E-02  1.1019336047E+00  1.6778457303E-03  1.6195084638E-03  5.1077441373E-01
  2.4010033445E+04  4.8898309587E-02  1.1001794235E+00  1.6957296785E-03  1.6364571697E-03  5.1191857558E-01
  2.4107023411E+04  4.9162491223E-02  1.0984393157E+00  1.7137309977E-03  1.6535123006E-03  5.1305740680E-01
  2.4204013378E+04  4.9428087645E-02  1.0967306635E+00  1.7318499813E-03  1.6706750845E-03  5.1419094770E-01
  2.4301003344E+04  4.9694048154E-02  1.0950314864E+00  1.7500869224E-03  1.6879445013E-03  5.1531923809E-01
  2.4397993311E+04  4.9960371796E-02  1.0933416944E+00  1.7684421135E-03  1.7053207542E-03  5.1644231737E-01
  2.4494983278E+04  5.0227057617E-02  1.0916611987E+00  1.7869158467E-03  1.7228040455E-03  5.1756022446E-01
  2.4591973244E+04  5.0495210126E-02  1.0900121881E+00  1.8055084136E-03  1.7403959468E-03  5.1867299787E-01
  2.4688963211E+04  5.0763880886E-02  1.0883751586E+00  1.8242201053E-03  1.7580955138E-03  5.1978067566E-01
  2.4785953177E+04  5.1032919361E-02  1.0867469917E+00  1.8430512128E-03  1.7759027635E-03  5.2088329548E-01
  2.4882943144E+04  5.1302324613E-02  1.0851276051E+00  1.8620020263E-03  1.7938178955E-03  5.2198089456E-01
  2.4979933110E+04  5.1572751423E-02  1.0835298722E+00  1.8810728357E-03  1.8118419544E-03  5.2307350971E-01
  2.5076923077E+04  5.1844143190E-02  1.0819523605E+00  1.9004332136E-03  1.8301320814E-03  5.2416117735E-01
  2.5173913043E+04  5.2115907198E-02  1.0803832219E+00  1.9199614917E-03  1.8485744780E-03  5.2524393350E-01
  2.5270903010E+04  5.2388042520E-02  1.0788223798E+00  1.9396141839E-03  1.8671287252E-03  5.2632181379E-01
  2.5367892977E+04  5.2660665295E-02  1.0772720272E+00  1.9593916007E-03  1.8857951930E-03  5.2739485345E-01
  2.5464882943E+04  5.2934789542E-02  1.0757515819E+00  1.9792940523E-03  1.9045754733E-03  5.2846308734E-01
  2.5561872910E+04  5.3209290508E-02  1.0742390504E+00  1.9993218485E-03  1.9234682847E-03  5.2952654997E-01
  2.5658862876E+04  5.3484167277E-02  1.0727343617E+00  2.0194752985E-03  1.9424738382E-03  5.3058527544E-01
  2.5755852843E+04  5.3759418941E-02  1.0712374456E+00  2.0397547113E-03  1.9615923441E-03  5.3163929787E-01
  2.5852842809E+04  5.4035774814E-02  1.0697620267E+00  2.0601603954E-03  1.9808250405E-03  5.3268865194E-01
  2.5949832776E+04  5.4313024082E-02  1.0683038295E+00  2.0806926588E-03  2.0001718669E-03  5.3373337164E-01
  2.6046822742E+04  5.4590653600E-02  1.0668530489E+00  2.1013518093E-03  2.0196323170E-03  5.3477349060E-01
  2.6143812709E+04  5.4868662469E-02  1.0654096198E+00  2.1221381541E-03  2.0392065986E-03  5.3580904206E-01
  2.6240802676E+04  5.5147052418E-02  1.0639735263E+00  2.1430520001E-03  2.0588949223E-03  5.3684005888E-01
  2.6337792642E+04  5.5427060688E-02  1.0625675186E+00  2.1640936538E-03  2.0786993230E-03  5.3786657357E-01
  2.6434782609E+04  5.5707453610E-02  1.0611685268E+00  2.1852634212E-03  2.0986182193E-03  5.3888861829E-01
  2.6531772575E+04  5.5988230296E-02  1.0597764904E+00  2.2065616081E-03  2.1186518164E-03  5.3990622482E-01
  2.6628762542E+04  5.6269389866E-02  1.0583913496E+00  2.2279885198E-03  2.1388003184E-03  5.4091942462E-01
  2.6725752508E+04  5.6551350332E-02  1.0570206270E+00  2.2495444610E-03  2.1590645711E-03  5.4192824880E-01
  2.6822742475E+04  5.6834516672E-02  1.0556714218E+00  2.2712297365E-03  2.1794454226E-03  5.4293272812E-01
  2.6919732441E+04  5.7118071146E-02  1.0543287994E+00  2.2930446501E-03  2.1999418346E-03  5.4393289304E-01
  2.7016722408E+04  5.7402012885E-02  1.0529927040E+00  2.3149895058E-03  2.2205540088E-03  5.4492877366E-01
  2.7113712375E+04  5.7686341025E-02  1.0516630806E+00  2.3370646068E-03  2.2412821461E-03  5.4592039979E-01
  2.7210702341E+04  5.7971789519E-02  1.0503528641E+00  2.3592702561E-03  2.2621276257E-03  5.4690780090E-01
  2.7307692308E+04  5.8258131121E-02  1.0490577840E+00  2.3816067563E-03  2.2830903122E-03  5.4789100616E-01
  2.7404682274E+04  5.8544864325E-02  1.0477688839E+00  2.4040744096E-03  2.3041696087E-03  5.4887004444E-01
  2.7501672241E+04  5.8831988278E-02  1.0464861126E+00  2.4266735178E-03  2.3253657136E-03  5.4984494429E-01
  2.7598662207E+04  5.9119502132E-02  1.0452094195E+00  2.4494043824E-03  2.3466788246E-03  5.5081573399E-01
  2.7695652174E+04  5.9408353819E-02  1.0439551438E+00  2.4722673044E-03  2.3681107304E-03  5.5178244151E-01
  2.7792642140E+04  5.9697887162E-02  1.0427116874E+00  2.4952625846E-03  2.3896605600E-03  5.5274509453E-01
  2.7889632107E+04  5.9987815558E-02  1.0414740361E+00  2.5183905233E-03  2.4113280340E-03  5.5370372045E-01
  2.7986622074E+04  6.0278138169E-02  1.0402421429E+00  2.5416514205E-03  2.4331133477E-03  5.5465834639E-01
  2.8083612040E+04  6.0568854163E-02  1.0390159611E+00  2.5650455757E-03  2.4550166956E-03  5.5560899920E-01
  2.8180602007E+04  6.0861021998E-02  1.0378133369E+00  2.5885732883E-03  2.4770401280E-03  5.5655570522E-01
  2.8277591973E+04  6.1153762850E-02  1.0366191642E+00  2.6122348570E-03  2.4991823336E-03  5.5749848987E-01
  2.8374581940E+04  6.1446902189E-02  1.0354304475E+00  2.6360305804E-03  2.5214432035E-03  5.5843737978E-01
  2.8471571906E+04  6.1740439194E-02  1.0342471432E+00  2.6599607567E-03  2.5438229296E-03  5.5937240150E-01
  2.8568561873E+04  6.2034373045E-02  1.0330692086E+00  2.6840256836E-03  2.5663217034E-03  5.6030358130E-01
  2.8665551839E+04  6.2329767902E-02  1.0319142005E+00  2.7082256586E-03  2.5889416636E-03  5.6123094517E-01
  2.8762541806E+04  6.2625731331E-02  1.0307671202E+00  2.7325609787E-03  2.6116814044E-03  5.6215451884E-01
  2.8859531773E+04  6.2922096664E-02  1.0296251702E+00  2.7570319408E-03  2.6345408147E-03  5.6307432774E-01
  2.8956521739E+04  6.3218863092E-02  1.0284883103E+00  2.7816388411E-03  2.6575200834E-03  5.6399039707E-01
  2.9053511706E+04  6.3516029813E-02  1.0273565009E+00  2.8063819757E-03  2.6806193989E-03  5.6490275175E-01
  2.9150501672E+04  6.3814560623E-02  1.0262453079E+00  2.8312616403E-03  2.7038407887E-03  5.6581141646E-01
  2.9247491639E+04  6.4113761001E-02  1.0251432655E+00  2.8562781302E-03  2.7271831507E-03  5.6671641561E-01
  2.9344481605E+04  6.4413366681E-02  1.0240460492E+00  2.8814317404E-03  2.7506461732E-03  5.6761777336E-01
  2.9441471572E+04  6.4713376867E-02  1.0229536220E+00  2.9067227655E-03  2.7742300421E-03  5.6851551364E-01
  2.9538461538E+04  6.5013790771E-02  1.0218659473E+00  2.9321514999E-03  2.7979349427E-03  5.6940966013E-01
  2.9635451505E+04  6.5315364656E-02  1.0207949851E+00  2.9577182374E-03  2.8217625641E-03  5.7030023627E-01
  2.9732441472E+04  6.5617815668E-02  1.0197360520E+00  2.9834232718E-03  2.8457125613E-03  5.7118726526E-01
  2.9829431438E+04  6.5920675358E-02  1.0186816609E+00  3.0092668963E-03  2.8697841959E-03  5.7207077010E-01
  2.9926421405E+04  6.6223942946E-02  1.0176317774E+00  3.0352494039E-03  2.8939776509E-03  5.7295077351E-01
  3.0023411371E+04  6.6527617657E-02  1.0165863678E+00  3.0614319451E-03  2.9183484107E-03  5.7382729803E-01
  3.0120401338E+04  6.6832140195E-02  1.0155522559E+00  3.0879474110E-03  2.9430179474E-03  5.7470036596E-01
  3.0217391304E+04  6.7137855199E-02  1.0145346297E+00  3.1146061777E-03  2.9678145314E-03  5.7556999938E-01
  3.0314381271E+04  6.7443982241E-02  1.0135212794E+00  3.1414085561E-03  2.9927367557E-03  5.7643622016E-01
  3.0411371237E+04  6.7750520553E-02  1.0125121735E+00  3.1683548565E-03  3.0177848137E-03  5.7729904995E-01
  3.0508361204E+04  6.8057469375E-02  1.0115072806E+00  3.1954453891E-03  3.0429588976E-03  5.7815851021E-01
  3.0605351171E+04  6.8364844608E-02  1.0105068239E+00  3.2226804636E-03  3.0682592351E-03  5.7901462216E-01
  3.0702341137E+04  6.8673837187E-02  1.0095288318E+00  3.2500603897E-03  3.0936886061E-03  5.7986740686E-01
  3.0799331104E+04  6.8983245148E-02  1.0085548665E+00  3.2775854763E-03  3.1192446333E-03  5.8071688512E-01
  3.0896321070E+04  6.9293067739E-02  1.0075848987E+00  3.3052560324E-03  3.1449275070E-03  5.8156307760E-01
  3.0993311037E+04  6.9603304212E-02  1.0066188995E+00  3.3330723665E-03  3.1707374166E-03  5.8240600473E-01
  3.1090301003E+04  6.9913953821E-02  1.0056568404E+00  3.3610347867E-03  3.1966745506E-03  5.8324568677E-01
  3.1187290970E+04  7.0225717993E-02  1.0047091435E+00  3.3891436011E-03  3.2227406832E-03  5.8408214377E-01
