#[MATERIAL DEFINITION FOR MC-GPU: interaction mean free path and sampling data from PENELOPE 2006]
#[MATERIAL NAME]
# SILICON  (14)                                                 
#[NOMINAL DENSITY (g/cm^3)]
#   2.33000000
#[NUMBER OF DATA VALUES]
#   1495
#[MEAN FREE PATHS (cm) (ie, average distance between interactions)]
#[Energy (eV)     | Rayleigh        | Compton         | Photoelectric   | TOTAL (+pair prod) (cm) | Rayleigh: max cumul prob F^2]
  5.0000000000E+03  3.5599912728E-01  5.3955830301E+00  1.7608789973E-03  1.7516431834E-03  2.6486835867E-01
  5.0969899666E+03  3.6106047657E-01  5.3322548065E+00  1.8588421317E-03  1.8486801438E-03  2.7123076634E-01
  5.1939799331E+03  3.6615804376E-01  5.2712928639E+00  1.9602536268E-03  1.9490941935E-03  2.7757549993E-01
  5.2909698997E+03  3.7129403863E-01  5.2125748847E+00  2.0651670687E-03  2.0529351285E-03  2.8389974306E-01
  5.3879598662E+03  3.7647054610E-01  5.1559865942E+00  2.1736358617E-03  2.1602524581E-03  2.9020056513E-01
  5.4849498328E+03  3.8168952792E-01  5.1014210852E+00  2.2857132321E-03  2.2710954086E-03  2.9647516332E-01
  5.5819397993E+03  3.8695282412E-01  5.0487782088E+00  2.4014522322E-03  2.3855129275E-03  3.0272089641E-01
  5.6789297659E+03  3.9226215403E-01  4.9979640259E+00  2.5209057440E-03  2.5035536868E-03  3.0893521500E-01
  5.7759197324E+03  3.9761911711E-01  4.9488903107E+00  2.6441264822E-03  2.6252660863E-03  3.1511544682E-01
  5.8729096990E+03  4.0302519341E-01  4.9014741014E+00  2.7711669983E-03  2.7506982569E-03  3.2125903443E-01
  5.9698996656E+03  4.0848174319E-01  4.8556372835E+00  2.9020796830E-03  2.8798980631E-03  3.2736357322E-01
  6.0668896321E+03  4.1398997712E-01  4.8113057140E+00  3.0384322189E-03  3.0144046849E-03  3.3342680799E-01
  6.1638795987E+03  4.1955090436E-01  4.7684080849E+00  3.1795835088E-03  3.1535811525E-03  3.3944662938E-01
  6.2608695652E+03  4.2516534028E-01  4.7268758951E+00  3.3249339280E-03  3.2968325777E-03  3.4542104343E-01
  6.3578595318E+03  4.3083398337E-01  4.6866445241E+00  3.4745404398E-03  3.4442105298E-03  3.5134799810E-01
  6.4548494983E+03  4.3656243345E-01  4.6476748863E+00  3.6284598863E-03  3.5957666780E-03  3.5722552383E-01
  6.5518394649E+03  4.4235295397E-01  4.6099145479E+00  3.7867489914E-03  3.7515522828E-03  3.6305179814E-01
  6.6488294314E+03  4.4820110595E-01  4.5732868473E+00  3.9494643619E-03  3.9116178657E-03  3.6882513907E-01
  6.7458193980E+03  4.5410724721E-01  4.5377403331E+00  4.1166624904E-03  4.0760140231E-03  3.7454400113E-01
  6.8428093645E+03  4.6007162195E-01  4.5032263371E+00  4.2883997563E-03  4.2447910994E-03  3.8020696310E-01
  6.9397993311E+03  4.6609435828E-01  4.4696987813E+00  4.4647324283E-03  4.4179991857E-03  3.8581262442E-01
  7.0367892977E+03  4.7217612409E-01  4.4371163330E+00  4.6464990961E-03  4.5964538502E-03  3.9135964482E-01
  7.1337792642E+03  4.7833693243E-01  4.4055063070E+00  4.8343478687E-03  4.7807843588E-03  3.9684681409E-01
  7.2307692308E+03  4.8455775612E-01  4.3747603139E+00  5.0270997094E-03  4.9698287528E-03  4.0227304816E-01
  7.3277591973E+03  4.9083808221E-01  4.3448403075E+00  5.2248142485E-03  5.1636395116E-03  4.0763738456E-01
  7.4247491639E+03  4.9717730774E-01  4.3157102243E+00  5.4275510325E-03  5.3622688540E-03  4.1293895430E-01
  7.5217391304E+03  5.0358727344E-01  4.2873739996E+00  5.6353695251E-03  5.5657703288E-03  4.1817690179E-01
  7.6187290970E+03  5.1007247556E-01  4.2598110947E+00  5.8483291088E-03  5.7741965626E-03  4.2335046143E-01
  7.7157190635E+03  5.1661681104E-01  4.2329424301E+00  6.0664890858E-03  5.9875971870E-03  4.2845898071E-01
  7.8127090301E+03  5.2321938708E-01  4.2067385811E+00  6.2899086792E-03  6.2060234145E-03  4.3350191529E-01
  7.9096989967E+03  5.2990015948E-01  4.1812283834E+00  6.5186470340E-03  6.4295293963E-03  4.3847881540E-01
  8.0066889632E+03  5.3665404054E-01  4.1563694651E+00  6.7528937482E-03  6.6582924786E-03  4.4338925003E-01
  8.1036789298E+03  5.4346566898E-01  4.1320967013E+00  6.9943989090E-03  6.8940036579E-03  4.4823284497E-01
  8.2006688963E+03  5.5034060928E-01  4.1084029657E+00  7.2415129873E-03  7.1350519566E-03  4.5300932418E-01
  8.2976588629E+03  5.5730651764E-01  4.0853351087E+00  7.4942975984E-03  7.3814951244E-03  4.5771850523E-01
  8.3946488294E+03  5.6432869543E-01  4.0627847949E+00  7.7528142983E-03  7.6333796206E-03  4.6236028319E-01
  8.4916387960E+03  5.7140720758E-01  4.0407344889E+00  8.0171245839E-03  7.8907575062E-03  4.6693456009E-01
  8.5886287625E+03  5.7858534825E-01  4.0192665837E+00  8.2872898945E-03  8.1536895918E-03  4.7144129063E-01
  8.6856187291E+03  5.8581788521E-01  3.9982563648E+00  8.5633716117E-03  8.4222187499E-03  4.7588051326E-01
  8.7826086957E+03  5.9310901313E-01  3.9776981874E+00  8.8454310606E-03  8.6963972102E-03  4.8025234514E-01
  8.8795986622E+03  6.0049883615E-01  3.9576631053E+00  9.1335295104E-03  8.9762855212E-03  4.8455694731E-01
  8.9765886288E+03  6.0794082948E-01  3.9380332966E+00  9.4277281751E-03  9.2619243499E-03  4.8879447971E-01
  9.0735785953E+03  6.1545354596E-01  3.9188344581E+00  9.7303294697E-03  9.5555303475E-03  4.9296516489E-01
  9.1705685619E+03  6.2305327662E-01  3.9000854797E+00  1.0040002434E-02  9.8558121007E-03  4.9706929481E-01
  9.2675585284E+03  6.3070221553E-01  3.8816957251E+00  1.0356116845E-02  1.0162142730E-02  5.0110721831E-01
  9.3645484950E+03  6.3844333485E-01  3.8637393211E+00  1.0678737171E-02  1.0474587003E-02  5.0507927956E-01
  9.4615384615E+03  6.4624836636E-01  3.8461472367E+00  1.1007927843E-02  1.0793190272E-02  5.0898585175E-01
  9.5585284281E+03  6.5411301076E-01  3.8289000321E+00  1.1343753260E-02  1.1118003771E-02  5.1282736825E-01
  9.6555183946E+03  6.6207371586E-01  3.8120564040E+00  1.1686277783E-02  1.1449091174E-02  5.1660432848E-01
  9.7525083612E+03  6.7007863920E-01  3.7955068523E+00  1.2035565737E-02  1.1786488634E-02  5.2031726926E-01
  9.8494983278E+03  6.7818006451E-01  3.7793391545E+00  1.2391681416E-02  1.2130264994E-02  5.2396664381E-01
  9.9464882943E+03  6.8633842455E-01  3.7634697675E+00  1.2754689077E-02  1.2480459065E-02  5.2755294772E-01
  1.0043478261E+04  6.9456910048E-01  3.7479175467E+00  1.3125734714E-02  1.2838162361E-02  5.3107672917E-01
  1.0140468227E+04  7.0288033770E-01  3.7326879527E+00  1.3505215609E-02  1.3203745093E-02  5.3453858418E-01
  1.0237458194E+04  7.1124255403E-01  3.7177198905E+00  1.3891898232E-02  1.3576004388E-02  5.3793915217E-01
  1.0334448161E+04  7.1970619644E-01  3.7030932495E+00  1.4285849082E-02  1.3955012412E-02  5.4127911167E-01
  1.0431438127E+04  7.2820695841E-01  3.6886885572E+00  1.4687134639E-02  1.4340796232E-02  5.4455916948E-01
  1.0528428094E+04  7.3681787442E-01  3.6746228673E+00  1.5095821357E-02  1.4733437896E-02  5.4777996956E-01
  1.0625418060E+04  7.4546869126E-01  3.6607696748E+00  1.5511975673E-02  1.5132959997E-02  5.5094212542E-01
  1.0722408027E+04  7.5421713706E-01  3.6472182107E+00  1.5935664001E-02  1.5539439171E-02  5.5404629045E-01
  1.0819397993E+04  7.6301736216E-01  3.6338857154E+00  1.6366952734E-02  1.5952906484E-02  5.5709315539E-01
  1.0916387960E+04  7.7190563343E-01  3.6208244947E+00  1.6805908244E-02  1.6373429778E-02  5.6008344416E-01
  1.1013377926E+04  7.8085452929E-01  3.6079838282E+00  1.7252596884E-02  1.6801047044E-02  5.6301790995E-01
  1.1110367893E+04  7.8988489581E-01  3.5953904305E+00  1.7707084985E-02  1.7235819106E-02  5.6589733124E-01
  1.1207357860E+04  7.9898163322E-01  3.5830145023E+00  1.8170340146E-02  1.7678641982E-02  5.6872246374E-01
  1.1304347826E+04  8.0815633918E-01  3.5708679420E+00  1.8643945860E-02  1.8131004316E-02  5.7149399571E-01
  1.1401337793E+04  8.1739999645E-01  3.5589312976E+00  1.9125691182E-02  1.8590793134E-02  5.7421263489E-01
  1.1498327759E+04  8.2672126066E-01  3.5472119100E+00  1.9615644974E-02  1.9058064835E-02  5.7687911704E-01
  1.1595317726E+04  8.3611082292E-01  3.5356906031E+00  2.0113876090E-02  1.9532865487E-02  5.7949420217E-01
  1.1692307692E+04  8.4558083891E-01  3.5243799403E+00  2.0620453375E-02  2.0015253283E-02  5.8205867112E-01
  1.1789297659E+04  8.5511519745E-01  3.5132514160E+00  2.1135445666E-02  2.0505269300E-02  5.8457332176E-01
  1.1886287625E+04  8.6473613345E-01  3.5023321536E+00  2.1658921794E-02  2.1002977812E-02  5.8703892295E-01
  1.1983277592E+04  8.7441408516E-01  3.4915751432E+00  2.2190950579E-02  2.1508410215E-02  5.8945618548E-01
  1.2080267559E+04  8.8418808408E-01  3.4810309943E+00  2.2731600835E-02  2.2021641924E-02  5.9182583504E-01
  1.2177257525E+04  8.9400833091E-01  3.4706254192E+00  2.3280941368E-02  2.2542689156E-02  5.9414861709E-01
  1.2274247492E+04  9.0393751015E-01  3.4604410572E+00  2.3839040977E-02  2.3071644363E-02  5.9642529370E-01
  1.2371237458E+04  9.1389865815E-01  3.4503679414E+00  2.4405968452E-02  2.3608502218E-02  5.9865664050E-01
  1.2468227425E+04  9.2398506460E-01  3.4405289352E+00  2.4981792576E-02  2.4153378979E-02  6.0084343689E-01
  1.2565217391E+04  9.3410333913E-01  3.4307939022E+00  2.5570622150E-02  2.4710026827E-02  6.0298640603E-01
  1.2662207358E+04  9.4432972223E-01  3.4212632706E+00  2.6170649204E-02  2.5276789225E-02  6.0508625012E-01
  1.2759197324E+04  9.5460638713E-01  3.4118548472E+00  2.6780016013E-02  2.5851867486E-02  6.0714368661E-01
  1.2856187291E+04  9.6496745315E-01  3.4026147644E+00  2.7398795301E-02  2.6435339060E-02  6.0915944568E-01
  1.2953177258E+04  9.7539997641E-01  3.3935209674E+00  2.8027059798E-02  2.7027243519E-02  6.1113426757E-01
  1.3050167224E+04  9.8589184551E-01  3.3845559325E+00  2.8664882245E-02  2.7627619929E-02  6.1306889828E-01
  1.3147157191E+04  9.9647733095E-01  3.3757654553E+00  2.9312335393E-02  2.8236547631E-02  6.1496404554E-01
  1.3244147157E+04  1.0070974138E+00  3.3670621698E+00  2.9969491999E-02  2.8854022363E-02  6.1682038101E-01
  1.3341137124E+04  1.0178317867E+00  3.3585628303E+00  3.0636424831E-02  2.9480166171E-02  6.1863858584E-01
  1.3438127090E+04  1.0286025771E+00  3.3501477458E+00  3.1313206665E-02  3.0114954110E-02  6.2041935047E-01
  1.3535117057E+04  1.0394568535E+00  3.3418888454E+00  3.1999910287E-02  3.0758479044E-02  6.2216337218E-01
  1.3632107023E+04  1.0503750130E+00  3.3337520734E+00  3.2696608489E-02  3.1410769082E-02  6.2387135109E-01
  1.3729096990E+04  1.0613462464E+00  3.3257204053E+00  3.3403374074E-02  3.2071859610E-02  6.2554395099E-01
  1.3826086957E+04  1.0724082512E+00  3.3178525715E+00  3.4120279852E-02  3.2741837146E-02  6.2718180514E-01
  1.3923076923E+04  1.0835070127E+00  3.3100581568E+00  3.4847398643E-02  3.3420689353E-02  6.2878555353E-01
  1.4020066890E+04  1.0946960620E+00  3.3024277015E+00  3.5584803273E-02  3.4108521431E-02  6.3035584232E-01
  1.4117056856E+04  1.1059355974E+00  3.2948896672E+00  3.6332566580E-02  3.4805333612E-02  6.3189332174E-01
  1.4214046823E+04  1.1172324903E+00  3.2874569003E+00  3.7090761406E-02  3.5511178248E-02  6.3339863831E-01
  1.4311036789E+04  1.1286088490E+00  3.2801669945E+00  3.7859460605E-02  3.6226126846E-02  6.3487239694E-01
  1.4408026756E+04  1.1400230342E+00  3.2729423300E+00  3.8638737037E-02  3.6950171503E-02  6.3631518859E-01
  1.4505016722E+04  1.1515209475E+00  3.2658708982E+00  3.9428663571E-02  3.7683414659E-02  6.3772760944E-01
  1.4602006689E+04  1.1630683323E+00  3.2588832932E+00  4.0229313083E-02  3.8425854792E-02  6.3911025909E-01
  1.4698996656E+04  1.1746664232E+00  3.2519829683E+00  4.1040758458E-02  3.9177535614E-02  6.4046373855E-01
  1.4795986622E+04  1.1863426458E+00  3.2452251280E+00  4.1863072589E-02  3.9938538145E-02  6.4178862855E-01
  1.4892976589E+04  1.1980575030E+00  3.2385253479E+00  4.2696328377E-02  4.0708847453E-02  6.4308547689E-01
  1.4989966555E+04  1.2098404493E+00  3.2319505403E+00  4.3540598730E-02  4.1488548667E-02  6.4435483204E-01
  1.5086956522E+04  1.2216795402E+00  3.2254707061E+00  4.4400052766E-02  4.2281379278E-02  6.4559724516E-01
  1.5183946488E+04  1.2335575038E+00  3.2190452629E+00  4.5271281118E-02  4.3084183725E-02  6.4681326849E-01
  1.5280936455E+04  1.2455105437E+00  3.2127763616E+00  4.6153893849E-02  4.3896643297E-02  6.4800343990E-01
  1.5377926421E+04  1.2575034970E+00  3.2065615056E+00  4.7047966043E-02  4.4718737412E-02  6.4916827145E-01
  1.5474916388E+04  1.2695423154E+00  3.2004265577E+00  4.7953572802E-02  4.5550517646E-02  6.5030827869E-01
  1.5571906355E+04  1.2816379722E+00  3.1944159203E+00  4.8870789241E-02  4.6392047001E-02  6.5142396622E-01
  1.5668896321E+04  1.2937726931E+00  3.1884537879E+00  4.9799690490E-02  4.7243325877E-02  6.5252544272E-01
  1.5765886288E+04  1.3059528155E+00  3.1825936624E+00  5.0740351696E-02  4.8104412230E-02  6.5362882520E-01
  1.5862876254E+04  1.3181775303E+00  3.1768273130E+00  5.1692848020E-02  4.8975341558E-02  6.5473429905E-01
  1.5959866221E+04  1.3304411135E+00  3.1711064658E+00  5.2657254638E-02  4.9856131783E-02  6.5584180208E-01
  1.6056856187E+04  1.3427429216E+00  3.1655042410E+00  5.3633646740E-02  5.0746836433E-02  6.5695127233E-01
  1.6153846154E+04  1.3550831782E+00  3.1599712847E+00  5.4622099533E-02  5.1647479979E-02  6.5806264808E-01
  1.6250836120E+04  1.3674619562E+00  3.1544810342E+00  5.5627128533E-02  5.2562055067E-02  6.5917586788E-01
  1.6347826087E+04  1.3798667454E+00  3.1491207660E+00  5.6648930981E-02  5.3490694715E-02  6.6029087060E-01
  1.6444816054E+04  1.3923082907E+00  3.1438110136E+00  5.7683291454E-02  5.4429589836E-02  6.6140759537E-01
  1.6541806020E+04  1.4047876097E+00  3.1385422602E+00  5.8730288861E-02  5.5378774397E-02  6.6252598160E-01
  1.6638795987E+04  1.4172779940E+00  3.1334080036E+00  5.9790002136E-02  5.6338270994E-02  6.6364596904E-01
  1.6735785953E+04  1.4298058688E+00  3.1283119145E+00  6.0862510238E-02  5.7308125133E-02  6.6476749772E-01
  1.6832775920E+04  1.4423683203E+00  3.1232600536E+00  6.1947892158E-02  5.8288367621E-02  6.6589050798E-01
  1.6929765886E+04  1.4549301885E+00  3.1183328303E+00  6.3046226909E-02  5.9279002064E-02  6.6701494049E-01
  1.7026755853E+04  1.4675287617E+00  3.1134414610E+00  6.4157593535E-02  6.0280090855E-02  6.6814073625E-01
  1.7123745819E+04  1.4801596668E+00  3.1085928007E+00  6.5282071104E-02  6.1291660898E-02  6.6926783656E-01
  1.7220735786E+04  1.4927768902E+00  3.1038640672E+00  6.6419738712E-02  6.2313694248E-02  6.7039618309E-01
  1.7317725753E+04  1.5054298966E+00  3.0991690248E+00  6.7570675480E-02  6.3346272564E-02  6.7152571783E-01
  1.7414715719E+04  1.5181161386E+00  3.0945105965E+00  6.8734960556E-02  6.4389422493E-02  6.7265638312E-01
  1.7511705686E+04  1.5307734963E+00  3.0899723176E+00  6.9912832031E-02  6.5443236540E-02  6.7378812165E-01
  1.7608695652E+04  1.5434656004E+00  3.0854657055E+00  7.1105389024E-02  6.6508710795E-02  6.7492087645E-01
  1.7705685619E+04  1.5561923541E+00  3.0809903669E+00  7.2311569767E-02  6.7584871566E-02  6.7605459095E-01
  1.7802675585E+04  1.5688933682E+00  3.0766297103E+00  7.3531453988E-02  6.8671672488E-02  6.7718920891E-01
  1.7899665552E+04  1.5816244733E+00  3.0723039846E+00  7.4765121442E-02  6.9769207215E-02  6.7832467446E-01
  1.7996655518E+04  1.5943892523E+00  3.0680076675E+00  7.6012651912E-02  7.0877506355E-02  6.7946093214E-01
  1.8093645485E+04  1.6071464557E+00  3.0638096576E+00  7.7274125208E-02  7.1996551093E-02  6.8059792682E-01
  1.8190635452E+04  1.6199260007E+00  3.0596576493E+00  7.8549621165E-02  7.3126397950E-02  6.8173560378E-01
  1.8287625418E+04  1.6327383963E+00  3.0555333020E+00  7.9839219647E-02  7.4267082563E-02  6.8287390869E-01
  1.8384615385E+04  1.6455602687E+00  3.0514869153E+00  8.1143000543E-02  7.5418610620E-02  6.8401278761E-01
  1.8481605351E+04  1.6583984524E+00  3.0475018690E+00  8.2461043768E-02  7.6581010544E-02  6.8515218698E-01
  1.8578595318E+04  1.6712688117E+00  3.0435428447E+00  8.3793429266E-02  7.7754317101E-02  6.8629205365E-01
  1.8675585284E+04  1.6841623408E+00  3.0396376154E+00  8.5140237003E-02  7.8938551439E-02  6.8743233488E-01
  1.8772575251E+04  1.6970699710E+00  3.0358131604E+00  8.6501546975E-02  8.0133734715E-02  6.8857297831E-01
  1.8869565217E+04  1.7100092455E+00  3.0320131887E+00  8.7877439202E-02  8.1339889123E-02  6.8971393203E-01
  1.8966555184E+04  1.7229797855E+00  3.0282391691E+00  8.9267993729E-02  8.2557035237E-02  6.9085514450E-01
  1.9063545151E+04  1.7359682454E+00  3.0245692915E+00  9.0673290627E-02  8.3785221779E-02  6.9199656463E-01
  1.9160535117E+04  1.7489879575E+00  3.0209224515E+00  9.2093409995E-02  8.5024439669E-02  6.9313814173E-01
  1.9257525084E+04  1.7620388383E+00  3.0172983890E+00  9.3528431953E-02  8.6274707002E-02  6.9427982549E-01
  1.9354515050E+04  1.7751203163E+00  3.0137491942E+00  9.4978436651E-02  8.7536084196E-02  6.9542156506E-01
  1.9451505017E+04  1.7882325295E+00  3.0102498901E+00  9.6443504260E-02  8.8808571212E-02  6.9656330932E-01
  1.9548494983E+04  1.8013756572E+00  3.0067720238E+00  9.7923714979E-02  9.0092161866E-02  6.9770500753E-01
  1.9645484950E+04  1.8145523928E+00  3.0033328837E+00  9.9419149031E-02  9.1386895019E-02  6.9884660940E-01
  1.9742474916E+04  1.8277696843E+00  2.9999758220E+00  1.0092988666E-01  9.2692847108E-02  6.9998806507E-01
  1.9839464883E+04  1.8410177690E+00  2.9966389373E+00  1.0245600815E-01  9.4009952968E-02  7.0112932514E-01
  1.9936454849E+04  1.8542965676E+00  2.9933220106E+00  1.0399759378E-01  9.5338226366E-02  7.0227034062E-01
  2.0033444816E+04  1.8676240408E+00  2.9900815208E+00  1.0556022854E-01  9.6682405730E-02  7.0341106299E-01
  2.0130434783E+04  1.8809888083E+00  2.9868806353E+00  1.0714921591E-01  9.8046788707E-02  7.0455144417E-01
  2.0227424749E+04  1.8943842869E+00  2.9836985369E+00  1.0875431191E-01  9.9422670241E-02  7.0569143653E-01
  2.0324414716E+04  1.9078157060E+00  2.9805490876E+00  1.1037560142E-01  1.0081009403E-01  7.0683099290E-01
  2.0421404682E+04  1.9213010543E+00  2.9774792378E+00  1.1201316938E-01  1.0220918089E-01  7.0797006654E-01
  2.0518394649E+04  1.9348171498E+00  2.9744270729E+00  1.1366710074E-01  1.0361981024E-01  7.0910861121E-01
  2.0615384615E+04  1.9483639168E+00  2.9713924081E+00  1.1533748052E-01  1.0504199295E-01  7.1024658109E-01
  2.0712374582E+04  1.9619584606E+00  2.9684175447E+00  1.1702439374E-01  1.0647584446E-01  7.1138393085E-01
  2.0809364548E+04  1.9755963408E+00  2.9654905877E+00  1.1872792549E-01  1.0792135252E-01  7.1252061560E-01
  2.0906354515E+04  1.9892649418E+00  2.9625801073E+00  1.2044816088E-01  1.0937845057E-01  7.1365659093E-01
  2.1003344482E+04  2.0029641899E+00  2.9596859348E+00  1.2218518505E-01  1.1084714689E-01  7.1479181290E-01
  2.1100334448E+04  2.0167221292E+00  2.9568728990E+00  1.2393908321E-01  1.1232763004E-01  7.1592623803E-01
  2.1197324415E+04  2.0305137691E+00  2.9540821751E+00  1.2570994058E-01  1.1381975293E-01  7.1705982331E-01
  2.1294314381E+04  2.0443361184E+00  2.9513068071E+00  1.2749784240E-01  1.1532350342E-01  7.1819252619E-01
  2.1391304348E+04  2.0581946070E+00  2.9485586404E+00  1.2930287400E-01  1.1683892370E-01  7.1932430462E-01
  2.1488294314E+04  2.0721105171E+00  2.9458834644E+00  1.3112512069E-01  1.1836616481E-01  7.2045511700E-01
  2.1585284281E+04  2.0860572103E+00  2.9432227467E+00  1.3296466785E-01  1.1990505748E-01  7.2158492221E-01
  2.1682274247E+04  2.1000346159E+00  2.9405763448E+00  1.3482160089E-01  1.2145560542E-01  7.2271367960E-01
  2.1779264214E+04  2.1140551155E+00  2.9379695792E+00  1.3669600524E-01  1.2301789842E-01  7.2384134901E-01
  2.1876254181E+04  2.1281274196E+00  2.9354195591E+00  1.3858796639E-01  1.2459200518E-01  7.2496789073E-01
  2.1973244147E+04  2.1422305223E+00  2.9328830185E+00  1.4049756986E-01  1.2617778389E-01  7.2609326555E-01
  2.2070234114E+04  2.1563643546E+00  2.9303598269E+00  1.4242490118E-01  1.2777523560E-01  7.2721743473E-01
  2.2167224080E+04  2.1705464984E+00  2.9278837422E+00  1.4437004595E-01  1.2938448960E-01  7.2834036000E-01
  2.2264214047E+04  2.1847765993E+00  2.9254533458E+00  1.4633308978E-01  1.3100554949E-01  7.2946200330E-01
  2.2361204013E+04  2.1990375281E+00  2.9230355183E+00  1.4831411833E-01  1.3263829181E-01  7.3058232570E-01
  2.2458193980E+04  2.2133292175E+00  2.9206301406E+00  1.5031321729E-01  1.3428271500E-01  7.3170128836E-01
  2.2555183946E+04  2.2276724058E+00  2.9182746496E+00  1.5233047239E-01  1.3593897578E-01  7.3281885292E-01
  2.2652173913E+04  2.2420617640E+00  2.9159586864E+00  1.5436596937E-01  1.3760703767E-01  7.3393498153E-01
  2.2749163880E+04  2.2564819932E+00  2.9136544445E+00  1.5641979405E-01  1.3928678262E-01  7.3504963681E-01
  2.2846153846E+04  2.2709330274E+00  2.9113618150E+00  1.5849203224E-01  1.4097820646E-01  7.3616278189E-01
  2.2943143813E+04  2.2854364140E+00  2.9091174164E+00  1.6058276981E-01  1.4268147690E-01  7.3727438038E-01
  2.3040133779E+04  2.2999865457E+00  2.9069110111E+00  1.6269209265E-01  1.4439655120E-01  7.3838439639E-01
  2.3137123746E+04  2.3145676047E+00  2.9047155373E+00  1.6482008669E-01  1.4612329938E-01  7.3949279451E-01
  2.3234113712E+04  2.3291795264E+00  2.9025308954E+00  1.6696683790E-01  1.4786171469E-01  7.4059953984E-01
  2.3331103679E+04  2.3438420039E+00  2.9003886312E+00  1.6913243228E-01  1.4961195434E-01  7.4170459795E-01
  2.3428093645E+04  2.3585544785E+00  2.8982871993E+00  1.7131695585E-01  1.5137401320E-01  7.4280793491E-01
  2.3525083612E+04  2.3732979496E+00  2.8961959624E+00  1.7352049468E-01  1.5314772704E-01  7.4390951727E-01
  2.3622073579E+04  2.3880723543E+00  2.8941148291E+00  1.7574313488E-01  1.5493308652E-01  7.4500931209E-01
  2.3719063545E+04  2.4028925402E+00  2.8920662458E+00  1.7798496256E-01  1.5673021122E-01  7.4610728689E-01
  2.3816053512E+04  2.4177689779E+00  2.8900654717E+00  1.8024606390E-01  1.5853918878E-01  7.4720340971E-01
  2.3913043478E+04  2.4326764941E+00  2.8880742048E+00  1.8252652510E-01  1.6035979279E-01  7.4829764905E-01
  2.4010033445E+04  2.4476150274E+00  2.8860923617E+00  1.8482643237E-01  1.6219201134E-01  7.4938997389E-01
  2.4107023411E+04  2.4625912503E+00  2.8841294753E+00  1.8714587200E-01  1.6403589283E-01  7.5048035372E-01
  2.4204013378E+04  2.4776333197E+00  2.8822252916E+00  1.8948493026E-01  1.6589168557E-01  7.5156875850E-01
  2.4301003344E+04  2.4927065624E+00  2.8803299729E+00  1.9184369349E-01  1.6775906668E-01  7.5265515867E-01
  2.4397993311E+04  2.5078109181E+00  2.8784434425E+00  1.9422224806E-01  1.6963802175E-01  7.5373952513E-01
  2.4494983278E+04  2.5229463270E+00  2.8765656252E+00  1.9662068034E-01  1.7152853563E-01  7.5482182930E-01
  2.4591973244E+04  2.5381506196E+00  2.8747472759E+00  1.9903907677E-01  1.7343095443E-01  7.5590204305E-01
  2.4688963211E+04  2.5533913163E+00  2.8729441101E+00  2.0147752381E-01  1.7534496241E-01  7.5698013871E-01
  2.4785953177E+04  2.5686632343E+00  2.8711491385E+00  2.0393610793E-01  1.7727049435E-01  7.5805608912E-01
  2.4882943144E+04  2.5839663150E+00  2.8693622921E+00  2.0641491567E-01  1.7920753265E-01  7.5912986728E-01
  2.4979933110E+04  2.5993238084E+00  2.8676131073E+00  2.0891403357E-01  1.8115629035E-01  7.6020144524E-01
  2.5076923077E+04  2.6147337230E+00  2.8658985002E+00  2.1145432092E-01  1.8313231914E-01  7.6127079511E-01
  2.5173913043E+04  2.6301749791E+00  2.8641915311E+00  2.1402098599E-01  1.8512414580E-01  7.6233788948E-01
  2.5270903010E+04  2.6456475195E+00  2.8624921368E+00  2.1660875584E-01  1.8712771687E-01  7.6340270144E-01
  2.5367892977E+04  2.6611555903E+00  2.8608054345E+00  2.1921772200E-01  1.8914305619E-01  7.6446520455E-01
  2.5464882943E+04  2.6767364768E+00  2.8591759239E+00  2.2184797605E-01  1.9117053438E-01  7.6552537289E-01
  2.5561872910E+04  2.6923488368E+00  2.8575535309E+00  2.2449960961E-01  1.9320970948E-01  7.6658318099E-01
  2.5658862876E+04  2.7079926140E+00  2.8559381975E+00  2.2717271436E-01  1.9526055912E-01  7.6763860386E-01
  2.5755852843E+04  2.7236677525E+00  2.8543298665E+00  2.2986738201E-01  1.9732306021E-01  7.6869161702E-01
  2.5852842809E+04  2.7394019353E+00  2.8527599499E+00  2.3258370431E-01  1.9939748968E-01  7.6974219643E-01
  2.5949832776E+04  2.7551871808E+00  2.8512188641E+00  2.3532177307E-01  2.0148374742E-01  7.7079031855E-01
  2.6046822742E+04  2.7710039875E+00  2.8496843554E+00  2.3808168013E-01  2.0358160038E-01  7.7183596029E-01
  2.6143812709E+04  2.7868523008E+00  2.8481563714E+00  2.4086351736E-01  2.0569102297E-01  7.7287909905E-01
  2.6240802676E+04  2.8027321688E+00  2.8466349709E+00  2.4366737671E-01  2.0781199007E-01  7.7391971269E-01
  2.6337792642E+04  2.8186921159E+00  2.8451720952E+00  2.4649335014E-01  2.0994502738E-01  7.7495777953E-01
  2.6434782609E+04  2.8346837793E+00  2.8437153444E+00  2.4934152967E-01  2.1208957132E-01  7.7599327834E-01
  2.6531772575E+04  2.8507071054E+00  2.8422646704E+00  2.5221200735E-01  2.1424559385E-01  7.7702618837E-01
  2.6628762542E+04  2.8667620407E+00  2.8408200259E+00  2.5510487529E-01  2.1641306626E-01  7.7805648931E-01
  2.6725752508E+04  2.8828654897E+00  2.8393986088E+00  2.5802022562E-01  2.1859215886E-01  7.7908416132E-01
  2.6822742475E+04  2.8990338693E+00  2.8380167067E+00  2.6095815052E-01  2.2078304501E-01  7.8010918499E-01
  2.6919732441E+04  2.9152340786E+00  2.8366404615E+00  2.6391874223E-01  2.2298530970E-01  7.8113154135E-01
  2.7016722408E+04  2.9314660652E+00  2.8352698297E+00  2.6690209302E-01  2.2519892183E-01  7.8215121191E-01
  2.7113712375E+04  2.9477297768E+00  2.8339047684E+00  2.6990829518E-01  2.2742384963E-01  7.8316817859E-01
  2.7210702341E+04  2.9640558599E+00  2.8325747411E+00  2.7293744107E-01  2.2966043892E-01  7.8418242369E-01
  2.7307692308E+04  2.9804348533E+00  2.8312701886E+00  2.7598962308E-01  2.3190855249E-01  7.8519392892E-01
  2.7404682274E+04  2.9968458025E+00  2.8299708591E+00  2.7906493365E-01  2.3416790231E-01  7.8620267538E-01
  2.7501672241E+04  3.0132886565E+00  2.8286767130E+00  2.8216346526E-01  2.3643845431E-01  7.8720864462E-01
  2.7598662207E+04  3.0297633645E+00  2.8273877118E+00  2.8528531040E-01  2.3872017373E-01  7.8821181864E-01
  2.7695652174E+04  3.0463107637E+00  2.8261409947E+00  2.8843056166E-01  2.4101355153E-01  7.8921217989E-01
  2.7792642140E+04  3.0629026157E+00  2.8249103908E+00  2.9159931161E-01  2.4331820254E-01  7.9020971128E-01
  2.7889632107E+04  3.0795265627E+00  2.8236846070E+00  2.9479165290E-01  2.4563393377E-01  7.9120439615E-01
  2.7986622074E+04  3.0961825547E+00  2.8224636077E+00  2.9800767821E-01  2.4796070823E-01  7.9219621832E-01
  2.8083612040E+04  3.1128705422E+00  2.8212473579E+00  3.0124748026E-01  2.5029848834E-01  7.9318516201E-01
  2.8180602007E+04  3.1296375490E+00  2.8200763482E+00  3.0451115180E-01  2.5264786791E-01  7.9417121191E-01
  2.8277591973E+04  3.1464445661E+00  2.8189164973E+00  3.0779878564E-01  2.5500830000E-01  7.9515435312E-01
  2.8374581940E+04  3.1632838298E+00  2.8177610923E+00  3.1111047461E-01  2.5737964299E-01  7.9613457119E-01
  2.8471571906E+04  3.1801552913E+00  2.8166101011E+00  3.1444631161E-01  2.5976185715E-01  7.9711185207E-01
  2.8568561873E+04  3.1970589022E+00  2.8154634920E+00  3.1780638953E-01  2.6215490209E-01  7.9808618217E-01
  2.8665551839E+04  3.2140433982E+00  2.8143610304E+00  3.2119080136E-01  2.6455941907E-01  7.9905754829E-01
  2.8762541806E+04  3.2310679459E+00  2.8132689262E+00  3.2459964007E-01  2.6697481182E-01  8.0002593765E-01
  2.8859531773E+04  3.2481249040E+00  2.8121809202E+00  3.2803299872E-01  2.6940093343E-01  8.0099133789E-01
  2.8956521739E+04  3.2652142252E+00  2.8110969832E+00  3.3149097038E-01  2.7183774147E-01  8.0195373705E-01
  2.9053511706E+04  3.2823358621E+00  2.8100170865E+00  3.3497364817E-01  2.7428519291E-01  8.0291312357E-01
  2.9150501672E+04  3.2995352991E+00  2.8089764266E+00  3.3848112524E-01  2.7674390638E-01  8.0386948631E-01
  2.9247491639E+04  3.3167797994E+00  2.8079492380E+00  3.4201349479E-01  2.7921337781E-01  8.0482281450E-01
  2.9344481605E+04  3.3340568864E+00  2.8069258239E+00  3.4557085005E-01  2.8169338382E-01  8.0577309776E-01
  2.9441471572E+04  3.3513665137E+00  2.8059061579E+00  3.4915328430E-01  2.8418387944E-01  8.0672032570E-01
  2.9538461538E+04  3.3687086351E+00  2.8048902142E+00  3.5276089085E-01  2.8668481909E-01  8.0766448689E-01
  2.9635451505E+04  3.3861200155E+00  2.8039049949E+00  3.5639376305E-01  2.8919671271E-01  8.0860557004E-01
  2.9732441472E+04  3.4035869443E+00  2.8029400526E+00  3.6005199428E-01  2.9171932180E-01  8.0954356426E-01
  2.9829431438E+04  3.4210866480E+00  2.8019785833E+00  3.6373567798E-01  2.9425225957E-01  8.1047845908E-01
  2.9926421405E+04  3.4386190815E+00  2.8010205633E+00  3.6744490761E-01  2.9679547859E-01  8.1141024446E-01
  3.0023411371E+04  3.4561841993E+00  2.8000659692E+00  3.7118517068E-01  2.9935243917E-01  8.1233891072E-01
  3.0120401338E+04  3.4738039846E+00  2.7991301977E+00  3.7496835604E-01  3.0193105375E-01  8.1326444861E-01
  3.0217391304E+04  3.4914956699E+00  2.7982250058E+00  3.7877775155E-01  3.0452059031E-01  8.1418684926E-01
  3.0314381271E+04  3.5092203289E+00  2.7973230060E+00  3.8261345381E-01  3.0712039459E-01  8.1510610420E-01
  3.0411371237E+04  3.5269779174E+00  2.7964241769E+00  3.8647555943E-01  3.0973041625E-01  8.1602220532E-01
  3.0508361204E+04  3.5447683912E+00  2.7955284972E+00  3.9036416508E-01  3.1235060444E-01  8.1693514491E-01
  3.0605351171E+04  3.5625925518E+00  2.7946365160E+00  3.9427936749E-01  3.1498092160E-01  8.1784491565E-01
  3.0702341137E+04  3.5805108670E+00  2.7937887734E+00  3.9822126342E-01  3.1762231680E-01  8.1875151056E-01
  3.0799331104E+04  3.5984623617E+00  2.7929439607E+00  4.0218994966E-01  3.2027374935E-01  8.1965492304E-01
  3.0896321070E+04  3.6164469927E+00  2.7921020584E+00  4.0618552308E-01  3.2293516665E-01  8.2055514687E-01
  3.0993311037E+04  3.6344647166E+00  2.7912630475E+00  4.1020808056E-01  3.2560651559E-01  8.2145217616E-01
  3.1090301003E+04  3.6525154907E+00  2.7904269090E+00  4.1425771905E-01  3.2828774254E-01  8.2234600539E-01
  3.1187290970E+04  3.6706354887E+00  2.7896170489E+00  4.1833453551E-01  3.3097941762E-01  8.2323662939E-01
