#[MATERIAL DEFINITION FOR MC-GPU: interaction mean free path and sampling data from PENELOPE 2006]
#[MATERIAL NAME]
# SoftTissus_11                                                 
#[NOMINAL DENSITY (g/cm^3)]
#   1.06160000
#[NUMBER OF DATA VALUES]
#   1495
#[MEAN FREE PATHS (cm) (ie, average distance between interactions)]
#[Energy (eV)     | Rayleigh        | Compton         | Photoelectric   | TOTAL (+pair prod) (cm) | Rayleigh: max cumul prob F^2]
  5.0000000000E+03  1.7792113426E+00  7.9403601089E+00  2.3080488526E-02  2.2719721056E-02  3.4503420098E-01
  5.0969899666E+03  1.8187695567E+00  7.8489579413E+00  2.4455277457E-02  2.4056852872E-02  3.4998467260E-01
  5.1939799331E+03  1.8587701632E+00  7.7622146125E+00  2.5883623545E-02  2.5444459782E-02  3.5482918390E-01
  5.2909698997E+03  1.8992040858E+00  7.6798108191E+00  2.7366549223E-02  2.6883376351E-02  3.5957251622E-01
  5.3879598662E+03  1.9400621071E+00  7.6014532975E+00  2.8905076756E-02  2.8374428980E-02  3.6421917618E-01
  5.4849498328E+03  1.9813348968E+00  7.5268723029E+00  3.0501207071E-02  2.9919377513E-02  3.6877376376E-01
  5.5819397993E+03  2.0230130398E+00  7.4558193754E+00  3.2166903372E-02  3.1529539177E-02  3.7324074650E-01
  5.6789297659E+03  2.0650870652E+00  7.3880653562E+00  3.3892411550E-02  3.3195324594E-02  3.7762429064E-01
  5.7759197324E+03  2.1075474759E+00  7.3233986219E+00  3.5679190681E-02  3.4917938050E-02  3.8192847283E-01
  5.8729096990E+03  2.1503847781E+00  7.2616235104E+00  3.7528465006E-02  3.6698347252E-02  3.8615730797E-01
  5.9698996656E+03  2.1935895159E+00  7.2025589095E+00  3.9440839673E-02  3.8536917961E-02  3.9031454983E-01
  6.0668896321E+03  2.2371525309E+00  7.1460367672E+00  4.1423968156E-02  4.0440726468E-02  3.9440375167E-01
  6.1638795987E+03  2.2810653983E+00  7.0919005952E+00  4.3475966835E-02  4.2407721864E-02  3.9842847823E-01
  6.2608695652E+03  2.3253204126E+00  7.0400045771E+00  4.5595092542E-02  4.4435994654E-02  4.0239211827E-01
  6.3578595318E+03  2.3699100255E+00  6.9902132700E+00  4.7782445550E-02  4.6526338834E-02  4.0629785053E-01
  6.4548494983E+03  2.4148384592E+00  6.9424640904E+00  5.0039126676E-02  4.8679545381E-02  4.1014866469E-01
  6.5518394649E+03  2.4601002045E+00  6.8966500161E+00  5.2366335714E-02  5.0896482370E-02  4.1394738707E-01
  6.6488294314E+03  2.5056755936E+00  6.8525949071E+00  5.4765121113E-02  5.3177852104E-02  4.1769680086E-01
  6.7458193980E+03  2.5515572706E+00  6.8101961215E+00  5.7236551150E-02  5.5524371369E-02  4.2139954950E-01
  6.8428093645E+03  2.5977380906E+00  6.7693580598E+00  5.9781729079E-02  5.7936777646E-02  4.2505811889E-01
  6.9397993311E+03  2.6442111481E+00  6.7299916447E+00  6.2401758643E-02  6.0415796249E-02  4.2867486738E-01
  7.0367892977E+03  2.6909708984E+00  6.6920198706E+00  6.5108093263E-02  6.2971822458E-02  4.3225203817E-01
  7.1337792642E+03  2.7380429533E+00  6.6555394860E+00  6.7909774953E-02  6.5612941376E-02  4.3579177722E-01
  7.2307692308E+03  2.7853891590E+00  6.6202970988E+00  7.0791631406E-02  6.8324537126E-02  4.3929608495E-01
  7.3277591973E+03  2.8330044860E+00  6.5862244557E+00  7.3754831010E-02  7.1107328396E-02  4.4276683917E-01
  7.4247491639E+03  2.8808841232E+00  6.5532578951E+00  7.6800543138E-02  7.3962020147E-02  4.4620583926E-01
  7.5217391304E+03  2.9290404457E+00  6.5214291317E+00  7.9929938136E-02  7.6889327706E-02  4.4961481369E-01
  7.6187290970E+03  2.9774728490E+00  6.4907046949E+00  8.3144187309E-02  7.9889938807E-02  4.5299540846E-01
  7.7157190635E+03  3.0261549408E+00  6.4609148535E+00  8.6444462908E-02  8.2964486287E-02  4.5634910713E-01
  7.8127090301E+03  3.0750825440E+00  6.4320108223E+00  8.9831938113E-02  8.6113617634E-02  4.5967730726E-01
  7.9096989967E+03  3.1242752203E+00  6.4040740870E+00  9.3307787024E-02  8.9338009229E-02  4.6298136157E-01
  8.0066889632E+03  3.1737204390E+00  6.3770188727E+00  9.6874451598E-02  9.2639428864E-02  4.6626258158E-01
  8.1036789298E+03  3.2233980366E+00  6.3507148447E+00  1.0054956773E-01  9.6033455183E-02  4.6952218369E-01
  8.2006688963E+03  3.2733116971E+00  6.3251615636E+00  1.0431777375E-01  9.9505518543E-02  4.7276124244E-01
  8.2976588629E+03  3.3234861516E+00  6.3004691913E+00  1.0818028048E-01  1.0305627734E-01  4.7598079356E-01
  8.3946488294E+03  3.3738831534E+00  6.2764163876E+00  1.1213829985E-01  1.0668623080E-01  4.7918184888E-01
  8.4916387960E+03  3.4245014852E+00  6.2529801260E+00  1.1619311767E-01  1.1039600540E-01  4.8236538156E-01
  8.5886287625E+03  3.4753787100E+00  6.2303379821E+00  1.2034695155E-01  1.1418715708E-01  4.8553223246E-01
  8.6856187291E+03  3.5264694680E+00  6.2082414735E+00  1.2460001504E-01  1.1805919438E-01  4.8868318171E-01
  8.7826086957E+03  3.5777764633E+00  6.1866909783E+00  1.2895352669E-01  1.2201263957E-01  4.9181899657E-01
  8.8795986622E+03  3.6293309448E+00  6.1658321154E+00  1.3340870614E-01  1.2604809521E-01  4.9494042677E-01
  8.9765886288E+03  3.6810905876E+00  6.1454397815E+00  1.3796677411E-01  1.3016591366E-01  4.9804812469E-01
  9.0735785953E+03  3.7330692992E+00  6.1255725383E+00  1.4265047666E-01  1.3438570874E-01  5.0114267031E-01
  9.1705685619E+03  3.7852773988E+00  6.1062692841E+00  1.4744775725E-01  1.3869604957E-01  5.0422463635E-01
  9.2675585284E+03  3.8376837634E+00  6.0873666251E+00  1.5235321913E-01  1.4309134094E-01  5.0729458623E-01
  9.3645484950E+03  3.8903204496E+00  6.0690073544E+00  1.5736812704E-01  1.4757214135E-01  5.1035300614E-01
  9.4615384615E+03  3.9431637596E+00  6.0510676968E+00  1.6249374698E-01  1.5213877013E-01  5.1340031908E-01
  9.5585284281E+03  3.9962094595E+00  6.0335196765E+00  1.6773304045E-01  1.5679308032E-01  5.1643694482E-01
  9.6555183946E+03  4.0494830629E+00  6.0164693732E+00  1.7308629820E-01  1.6153469947E-01  5.1946329550E-01
  9.7525083612E+03  4.1029446996E+00  5.9997289043E+00  1.7855421375E-01  1.6636328947E-01  5.2247971240E-01
  9.8494983278E+03  4.1566313916E+00  5.9834539155E+00  1.8413806204E-01  1.7127937069E-01  5.2548649501E-01
  9.9464882943E+03  4.2105126509E+00  5.9675029430E+00  1.8983911926E-01  1.7628310853E-01  5.2848394332E-01
  1.0043478261E+04  4.2645985501E+00  5.9519127699E+00  1.9566974575E-01  1.8138437666E-01  5.3147236984E-01
  1.0140468227E+04  4.3188943672E+00  5.9366934007E+00  2.0163469459E-01  1.8658635780E-01  5.3445200601E-01
  1.0237458194E+04  4.3733778756E+00  5.9217488852E+00  2.0772197837E-01  1.9187772703E-01  5.3742301274E-01
  1.0334448161E+04  4.4280869639E+00  5.9072111323E+00  2.1393290765E-01  1.9725895038E-01  5.4038555378E-01
  1.0431438127E+04  4.4829726171E+00  5.8928905281E+00  2.2026879436E-01  2.0272996155E-01  5.4333979591E-01
  1.0528428094E+04  4.5380914484E+00  5.8789767893E+00  2.2673095185E-01  2.0829130994E-01  5.4628590887E-01
  1.0625418060E+04  4.5933882187E+00  5.8652710617E+00  2.3332069481E-01  2.1394283611E-01  5.4922406525E-01
  1.0722408027E+04  4.6489090487E+00  5.8519166932E+00  2.4003933933E-01  2.1968499641E-01  5.5215441795E-01
  1.0819397993E+04  4.7046166999E+00  5.8387858053E+00  2.4688820284E-01  2.2551768975E-01  5.5507702213E-01
  1.0916387960E+04  4.7605410065E+00  5.8259622154E+00  2.5386860411E-01  2.3144123677E-01  5.5799191545E-01
  1.1013377926E+04  4.8166591291E+00  5.8133689458E+00  2.6098186323E-01  2.3745558009E-01  5.6089914009E-01
  1.1110367893E+04  4.8729885480E+00  5.8010493691E+00  2.6822930163E-01  2.4356092232E-01  5.6379874222E-01
  1.1207357860E+04  4.9295165384E+00  5.7889590933E+00  2.7562648215E-01  2.4976892123E-01  5.6669077188E-01
  1.1304347826E+04  4.9862528539E+00  5.7771184416E+00  2.8319879227E-01  2.5609922174E-01  5.6957528249E-01
  1.1401337793E+04  5.0431898949E+00  5.7654989339E+00  2.9091163544E-01  2.6252213113E-01  5.7245229364E-01
  1.1498327759E+04  5.1003350322E+00  5.7541136620E+00  2.9876638713E-01  2.6903771386E-01  5.7532176833E-01
  1.1595317726E+04  5.1576800736E+00  5.7429349164E+00  3.0676442437E-01  2.7564588445E-01  5.7818367033E-01
  1.1692307692E+04  5.2152360906E+00  5.7319829006E+00  3.1490712574E-01  2.8234669491E-01  5.8103796784E-01
  1.1789297659E+04  5.2729878303E+00  5.7212169680E+00  3.2319587135E-01  2.8913995650E-01  5.8388463332E-01
  1.1886287625E+04  5.3309569103E+00  5.7106773960E+00  3.3163204285E-01  2.9602576631E-01  5.8672364332E-01
  1.1983277592E+04  5.3891137759E+00  5.7002982366E+00  3.4021702341E-01  3.0300376841E-01  5.8955496626E-01
  1.2080267559E+04  5.4474982204E+00  5.6901515074E+00  3.4895219768E-01  3.1007417547E-01  5.9237852454E-01
  1.2177257525E+04  5.5060583510E+00  5.6801348557E+00  3.5783895184E-01  3.1723638704E-01  5.9519423444E-01
  1.2274247492E+04  5.5648605728E+00  5.6703624892E+00  3.6687867351E-01  3.2449081603E-01  5.9800201687E-01
  1.2371237458E+04  5.6238218023E+00  5.6606857323E+00  3.7607275181E-01  3.3183652556E-01  6.0080179723E-01
  1.2468227425E+04  5.6830443706E+00  5.6512703155E+00  3.8542257731E-01  3.3927422903E-01  6.0359350518E-01
  1.2565217391E+04  5.7424244346E+00  5.6419433370E+00  3.9494039428E-01  3.4681110401E-01  6.0637710573E-01
  1.2662207358E+04  5.8020515927E+00  5.6328384509E+00  4.0462259977E-01  3.5444376340E-01  6.0915255828E-01
  1.2759197324E+04  5.8618566822E+00  5.6238483935E+00  4.1446542489E-01  3.6216727006E-01  6.1191975835E-01
  1.2856187291E+04  5.9218872917E+00  5.6150343816E+00  4.2447027929E-01  3.6998176200E-01  6.1467860526E-01
  1.2953177258E+04  5.9821254429E+00  5.6063686672E+00  4.3463857407E-01  3.7788675655E-01  6.1742900280E-01
  1.3050167224E+04  6.0425588287E+00  5.5978288726E+00  4.4497172185E-01  3.8588177254E-01  6.2017085928E-01
  1.3147157191E+04  6.1032385232E+00  5.5894756891E+00  4.5547113670E-01  3.9396696330E-01  6.2290408601E-01
  1.3244147157E+04  6.1640748413E+00  5.5811962310E+00  4.6613823417E-01  4.0214103506E-01  6.2562855267E-01
  1.3341137124E+04  6.2252031055E+00  5.5731424549E+00  4.7697443125E-01  4.1040495543E-01  6.2834411953E-01
  1.3438127090E+04  6.2864898966E+00  5.5651604148E+00  4.8798114638E-01  4.1875694071E-01  6.3105065184E-01
  1.3535117057E+04  6.3480256507E+00  5.5573433112E+00  4.9915979943E-01  4.2719746715E-01  6.3374801984E-01
  1.3632107023E+04  6.4097719632E+00  5.5496482737E+00  5.1051181170E-01  4.3572568450E-01  6.3643609858E-01
  1.3729096990E+04  6.4717118404E+00  5.5420538687E+00  5.2206709089E-01  4.4436154289E-01  6.3911476786E-01
  1.3826086957E+04  6.5339269264E+00  5.5346359357E+00  5.3384883148E-01  4.5312077514E-01  6.4178391214E-01
  1.3923076923E+04  6.5962989234E+00  5.5272796829E+00  5.4581114677E-01  4.6196705418E-01  6.4444342040E-01
  1.4020066890E+04  6.6589598222E+00  5.5201006808E+00  5.5795551392E-01  4.7090128994E-01  6.4709318612E-01
  1.4117056856E+04  6.7218106078E+00  5.5130088877E+00  5.7028341174E-01  4.7992182620E-01  6.4973310537E-01
  1.4214046823E+04  6.7848747806E+00  5.5060208701E+00  5.8279632064E-01  4.8902832054E-01  6.5236304826E-01
  1.4311036789E+04  6.8482140887E+00  5.4991847507E+00  5.9549572269E-01  4.9822090414E-01  6.5498287374E-01
  1.4408026756E+04  6.9117108810E+00  5.4924032074E+00  6.0838310156E-01  5.0749757002E-01  6.5759244736E-01
  1.4505016722E+04  6.9755127005E+00  5.4857870630E+00  6.2145994252E-01  5.1685942280E-01  6.6019163976E-01
  1.4602006689E+04  7.0395087162E+00  5.4792499822E+00  6.3472773244E-01  5.2630449816E-01  6.6278032654E-01
  1.4698996656E+04  7.1037087489E+00  5.4727965450E+00  6.4818795977E-01  5.3583220969E-01  6.6535838826E-01
  1.4795986622E+04  7.1682141503E+00  5.4664960938E+00  6.6184211456E-01  5.4544313964E-01  6.6792571027E-01
  1.4892976589E+04  7.2328780904E+00  5.4602439908E+00  6.7569168839E-01  5.5513474026E-01  6.7048218271E-01
  1.4989966555E+04  7.2978285754E+00  5.4541235149E+00  6.8973817443E-01  5.6490789245E-01  6.7302770034E-01
  1.5086956522E+04  7.3630132722E+00  5.4480980921E+00  7.0402041312E-01  5.7478610615E-01  6.7556216178E-01
  1.5183946488E+04  7.4283568925E+00  5.4421178740E+00  7.1850824632E-01  5.8474616911E-01  6.7808545301E-01
  1.5280936455E+04  7.4940686868E+00  5.4363095975E+00  7.3319896080E-01  5.9478724125E-01  6.8059745228E-01
  1.5377926421E+04  7.5599452084E+00  5.4305470445E+00  7.4809407951E-01  6.0490583318E-01  6.8309804331E-01
  1.5474916388E+04  7.6260438254E+00  5.4248625639E+00  7.6319512704E-01  6.1510187298E-01  6.8558711490E-01
  1.5571906355E+04  7.6924647250E+00  5.4193115748E+00  7.7850362961E-01  6.2537594641E-01  6.8806456082E-01
  1.5668896321E+04  7.7590463241E+00  5.4138006803E+00  7.9402111505E-01  6.3572496314E-01  6.9053027975E-01
  1.5765886288E+04  7.8259137958E+00  5.4083964705E+00  8.0974911281E-01  6.4614981455E-01  6.9298417521E-01
  1.5862876254E+04  7.8930527419E+00  5.4030892208E+00  8.2568915396E-01  6.5664946833E-01  6.9542615547E-01
  1.5959866221E+04  7.9603531536E+00  5.3978194827E+00  8.4184277112E-01  6.6722142543E-01  6.9785613345E-01
  1.6056856187E+04  8.0279974714E+00  5.3926782140E+00  8.5821149855E-01  6.7786746878E-01  7.0027402176E-01
  1.6153846154E+04  8.0958685337E+00  5.3876046799E+00  8.7479687205E-01  6.8858499285E-01  7.0267972291E-01
  1.6250836120E+04  8.1639019563E+00  5.3825662476E+00  8.9160042900E-01  6.9937206568E-01  7.0507314240E-01
  1.6347826087E+04  8.2323298145E+00  5.3776715065E+00  9.0862370834E-01  7.1023131469E-01  7.0745419071E-01
  1.6444816054E+04  8.3009475113E+00  5.3728222786E+00  9.2586825057E-01  7.2115867982E-01  7.0982278323E-01
  1.6541806020E+04  8.3697311040E+00  5.3680070189E+00  9.4333559772E-01  7.3215277562E-01  7.1217884019E-01
  1.6638795987E+04  8.4389452932E+00  5.3633421219E+00  9.6102729338E-01  7.4321686382E-01  7.1452228650E-01
  1.6735785953E+04  8.5083245760E+00  5.3587083570E+00  9.7894488265E-01  7.5434575402E-01  7.1685305177E-01
  1.6832775920E+04  8.5778878741E+00  5.3541134910E+00  9.9708991215E-01  7.6553870635E-01  7.1917107013E-01
  1.6929765886E+04  8.6478777600E+00  5.3496577389E+00  1.0154639300E+00  7.7679875204E-01  7.2147627583E-01
  1.7026755853E+04  8.7180339979E+00  5.3452311172E+00  1.0340684859E+00  7.8812059742E-01  7.2376859659E-01
  1.7123745819E+04  8.7883790970E+00  5.3408423688E+00  1.0529051310E+00  7.9950354639E-01  7.2604796342E-01
  1.7220735786E+04  8.8591603297E+00  5.3365877985E+00  1.0719754178E+00  8.1095083221E-01  7.2831431213E-01
  1.7317725753E+04  8.9301092953E+00  5.3323604842E+00  1.0912809006E+00  8.2245684195E-01  7.3056758318E-01
  1.7414715719E+04  9.0012366339E+00  5.3281642684E+00  1.1108231349E+00  8.3402065771E-01  7.3280772163E-01
  1.7511705686E+04  9.0728250992E+00  5.3241033826E+00  1.1306230409E+00  8.4565709837E-01  7.3503467703E-01
  1.7608695652E+04  9.1445827985E+00  5.3200679958E+00  1.1508065827E+00  8.5742877177E-01  7.3724840333E-01
  1.7705685619E+04  9.2165091963E+00  5.3160578088E+00  1.1712364076E+00  8.6925616915E-01  7.3944887350E-01
  1.7802675585E+04  9.2889013994E+00  5.3121771728E+00  1.1919141434E+00  8.8114367883E-01  7.4163611247E-01
  1.7899665552E+04  9.3614825965E+00  5.3083268251E+00  1.2128414198E+00  8.9308514834E-01  7.4381008680E-01
  1.7996655518E+04  9.4342341056E+00  5.3045000527E+00  1.2340198683E+00  9.0507906408E-01  7.4597075911E-01
  1.8093645485E+04  9.5074137993E+00  5.3007834198E+00  1.2554511219E+00  9.1712924320E-01  7.4811809621E-01
  1.8190635452E+04  9.5808325969E+00  5.2971116482E+00  1.2771368154E+00  9.2923101509E-01  7.5025206897E-01
  1.8287625418E+04  9.6544234121E+00  5.2934619251E+00  1.2990785854E+00  9.4138191532E-01  7.5237265226E-01
  1.8384615385E+04  9.7283839656E+00  5.2898977341E+00  1.3212780700E+00  9.5358471907E-01  7.5447982481E-01
  1.8481605351E+04  9.8026546932E+00  5.2863984280E+00  1.3437369094E+00  9.6583719506E-01  7.5657356251E-01
  1.8578595318E+04  9.8770992359E+00  5.2829197347E+00  1.3664567449E+00  9.7813545267E-01  7.5865381278E-01
  1.8675585284E+04  9.9518323542E+00  5.2794969079E+00  1.3894392199E+00  9.9048067222E-01  7.6072056756E-01
  1.8772575251E+04  1.0026969570E+01  5.2761642846E+00  1.4126886957E+00  1.0028755511E+00  7.6277382992E-01
  1.8869565217E+04  1.0102282489E+01  5.2728509227E+00  1.4362055863E+00  1.0153135659E+00  7.6481360602E-01
  1.8966555184E+04  1.0177778145E+01  5.2695588332E+00  1.4599901796E+00  1.0277929687E+00  7.6683990500E-01
  1.9063545151E+04  1.0253796625E+01  5.2663874153E+00  1.4840441270E+00  1.0403199413E+00  7.6885273887E-01
  1.9160535117E+04  1.0329992789E+01  5.2632339861E+00  1.5083690819E+00  1.0528859845E+00  7.7085212249E-01
  1.9257525084E+04  1.0406366150E+01  5.2600983531E+00  1.5329666992E+00  1.0654898790E+00  7.7283806436E-01
  1.9354515050E+04  1.0483153881E+01  5.2570470232E+00  1.5578386353E+00  1.0781357228E+00  7.7481054398E-01
  1.9451505017E+04  1.0560248366E+01  5.2540484071E+00  1.5829865486E+00  1.0908200730E+00  7.7676955076E-01
  1.9548494983E+04  1.0637522126E+01  5.2510664034E+00  1.6084120987E+00  1.1035389058E+00  7.7871507883E-01
  1.9645484950E+04  1.0715057894E+01  5.2481232506E+00  1.6341169470E+00  1.1162929195E+00  7.8064712607E-01
  1.9742474916E+04  1.0793065975E+01  5.2452745892E+00  1.6601027566E+00  1.1290858849E+00  7.8256569400E-01
  1.9839464883E+04  1.0871255501E+01  5.2424414232E+00  1.6863711921E+00  1.1419099808E+00  7.8447078769E-01
  1.9936454849E+04  1.0949626003E+01  5.2396235932E+00  1.7129239196E+00  1.1547639940E+00  7.8636241559E-01
  2.0033444816E+04  1.1028460311E+01  5.2368937914E+00  1.7397750355E+00  1.1676591087E+00  7.8824058623E-01
  2.0130434783E+04  1.1107580477E+01  5.2342049042E+00  1.7669380549E+00  1.1805951871E+00  7.9010530571E-01
  2.0227424749E+04  1.1186883881E+01  5.2315303118E+00  1.7943913655E+00  1.1935580108E+00  7.9195658310E-01
  2.0324414716E+04  1.1266442880E+01  5.2288880640E+00  1.8221366525E+00  1.2065481768E+00  7.9379443088E-01
  2.0421404682E+04  1.1346504916E+01  5.2263390829E+00  1.8501756028E+00  1.2195707551E+00  7.9561886490E-01
  2.0518394649E+04  1.1426752499E+01  5.2238034131E+00  1.8785099046E+00  1.2326167843E+00  7.9742990424E-01
  2.0615384615E+04  1.1507185179E+01  5.2212809227E+00  1.9071412480E+00  1.2456850703E+00  7.9922757107E-01
  2.0712374582E+04  1.1588031708E+01  5.2188269109E+00  1.9360713246E+00  1.2587803523E+00  8.0101187556E-01
  2.0809364548E+04  1.1669233431E+01  5.2164260440E+00  1.9653018276E+00  1.2719001156E+00  8.0278284601E-01
  2.0906354515E+04  1.1750622602E+01  5.2140374382E+00  1.9948344518E+00  1.2850389009E+00  8.0454053080E-01
  2.1003344482E+04  1.1832198784E+01  5.2116609742E+00  2.0246708934E+00  1.2981955340E+00  8.0628498025E-01
  2.1100334448E+04  1.1914326674E+01  5.2093820451E+00  2.0548128505E+00  1.3113786884E+00  8.0801624658E-01
  2.1197324415E+04  1.1996682303E+01  5.2071234499E+00  2.0852620226E+00  1.3245786951E+00  8.0973438380E-01
  2.1294314381E+04  1.2079227336E+01  5.2048761380E+00  2.1160201107E+00  1.3377933877E+00  8.1143944763E-01
  2.1391304348E+04  1.2162030961E+01  5.2026559119E+00  2.1470888174E+00  1.3510235486E+00  8.1313148257E-01
  2.1488294314E+04  1.2245362979E+01  5.2005236343E+00  2.1784698469E+00  1.3642756662E+00  8.1481051415E-01
  2.1585284281E+04  1.2328886832E+01  5.1984018273E+00  2.2101649050E+00  1.3775393713E+00  8.1647657061E-01
  2.1682274247E+04  1.2412602097E+01  5.1962903929E+00  2.2421756989E+00  1.3908135361E+00  8.1812968315E-01
  2.1779264214E+04  1.2496662029E+01  5.1942232726E+00  2.2745039373E+00  1.4041014675E+00  8.1976988586E-01
  2.1876254181E+04  1.2581174630E+01  5.1922234905E+00  2.3071513307E+00  1.4174053305E+00  8.2139721557E-01
  2.1973244147E+04  1.2665881116E+01  5.1902333197E+00  2.3401195907E+00  1.4307166484E+00  8.2301171180E-01
  2.2070234114E+04  1.2750781072E+01  5.1882526721E+00  2.3734104309E+00  1.4440343250E+00  8.2461341663E-01
  2.2167224080E+04  1.2836086757E+01  5.1863271350E+00  2.4070255661E+00  1.4573636201E+00  8.2620237460E-01
  2.2264214047E+04  1.2921794383E+01  5.1844549449E+00  2.4409667126E+00  1.4707035226E+00  8.2777863263E-01
  2.2361204013E+04  1.3007697995E+01  5.1825915644E+00  2.4752368282E+00  1.4840473280E+00  8.2934223990E-01
  2.2458193980E+04  1.3093797189E+01  5.1807369141E+00  2.5100765645E+00  1.4974790050E+00  8.3089324778E-01
  2.2555183946E+04  1.3180336509E+01  5.1789419482E+00  2.5452531330E+00  1.5109198849E+00  8.3243170973E-01
  2.2652173913E+04  1.3267253684E+01  5.1771927341E+00  2.5807683173E+00  1.5243671702E+00  8.3395767990E-01
  2.2749163880E+04  1.3354368996E+01  5.1754515806E+00  2.6166239028E+00  1.5378143176E+00  8.3547120529E-01
  2.2846153846E+04  1.3441682051E+01  5.1737184165E+00  2.6528216764E+00  1.5512602814E+00  8.3697233149E-01
  2.2943143813E+04  1.3529441291E+01  5.1720434844E+00  2.6893634268E+00  1.5647119590E+00  8.3846110647E-01
  2.3040133779E+04  1.3617582610E+01  5.1704128961E+00  2.7262509445E+00  1.5781664700E+00  8.3993758051E-01
  2.3137123746E+04  1.3705924270E+01  5.1687896684E+00  2.7634860215E+00  1.5916170653E+00  8.4140180609E-01
  2.3234113712E+04  1.3794465883E+01  5.1671737374E+00  2.8010704514E+00  1.6050627399E+00  8.4285383781E-01
  2.3331103679E+04  1.3883429685E+01  5.1656087420E+00  2.8390060298E+00  1.6185098151E+00  8.4429373229E-01
  2.3428093645E+04  1.3972809814E+01  5.1640926760E+00  2.8772945536E+00  1.6319572944E+00  8.4572154804E-01
  2.3525083612E+04  1.4062392537E+01  5.1625833157E+00  2.9159378214E+00  1.6453972479E+00  8.4713734543E-01
  2.3622073579E+04  1.4152177473E+01  5.1610806038E+00  2.9549376337E+00  1.6588287139E+00  8.4854118656E-01
  2.3719063545E+04  1.4242328794E+01  5.1596158584E+00  2.9942957923E+00  1.6722563051E+00  8.4993313521E-01
  2.3816053512E+04  1.4332962461E+01  5.1582104398E+00  3.0340141009E+00  1.6856831653E+00  8.5131325669E-01
  2.3913043478E+04  1.4423801023E+01  5.1568111136E+00  3.0740943648E+00  1.6990990648E+00  8.5268161409E-01
  2.4010033445E+04  1.4514844109E+01  5.1554178288E+00  3.1145383906E+00  1.7125030864E+00  8.5403826442E-01
  2.4107023411E+04  1.4606164182E+01  5.1540440286E+00  3.1553479870E+00  1.7258968534E+00  8.5538326561E-01
  2.4204013378E+04  1.4698066171E+01  5.1527455950E+00  3.1965249640E+00  1.7392902010E+00  8.5671667747E-01
  2.4301003344E+04  1.4790175405E+01  5.1514526792E+00  3.2380711332E+00  1.7526693334E+00  8.5803856156E-01
  2.4397993311E+04  1.4882491522E+01  5.1501652359E+00  3.2799883080E+00  1.7660333788E+00  8.5934898110E-01
  2.4494983278E+04  1.4975014161E+01  5.1488832203E+00  3.3222783032E+00  1.7793814770E+00  8.6064800091E-01
  2.4591973244E+04  1.5068144953E+01  5.1476785189E+00  3.3649429353E+00  1.7927271934E+00  8.6193568729E-01
  2.4688963211E+04  1.5161539742E+01  5.1464885845E+00  3.4079840224E+00  1.8060575603E+00  8.6321210799E-01
  2.4785953177E+04  1.5255143820E+01  5.1453035891E+00  3.4514033840E+00  1.8193698161E+00  8.6447733204E-01
  2.4882943144E+04  1.5348956837E+01  5.1441234929E+00  3.4952028415E+00  1.8326631472E+00  8.6573142979E-01
  2.4979933110E+04  1.5443220713E+01  5.1429904777E+00  3.5393842176E+00  1.8459456526E+00  8.6697447364E-01
  2.5076923077E+04  1.5537915137E+01  5.1419002500E+00  3.5840305175E+00  1.8592378113E+00  8.6820656594E-01
  2.5173913043E+04  1.5632821301E+01  5.1408144607E+00  3.6290855540E+00  1.8725147226E+00  8.6942779067E-01
  2.5270903010E+04  1.5727938860E+01  5.1397330746E+00  3.6745302280E+00  1.8857699156E+00  8.7063821741E-01
  2.5367892977E+04  1.5823310838E+01  5.1386634934E+00  3.7203663911E+00  1.8990042702E+00  8.7183791680E-01
  2.5464882943E+04  1.5919313347E+01  5.1376696907E+00  3.7665958968E+00  1.9122313844E+00  8.7302696055E-01
  2.5561872910E+04  1.6015530038E+01  5.1366798571E+00  3.8132206003E+00  1.9254348785E+00  8.7420542132E-01
  2.5658862876E+04  1.6111960575E+01  5.1356939618E+00  3.8602423582E+00  1.9386140277E+00  8.7537337265E-01
  2.5755852843E+04  1.6208604621E+01  5.1347119743E+00  3.9076630287E+00  1.9517681193E+00  8.7653088893E-01
  2.5852842809E+04  1.6305731847E+01  5.1337793404E+00  3.9554844719E+00  1.9649070351E+00  8.7767804530E-01
  2.5949832776E+04  1.6403264919E+01  5.1328823066E+00  4.0037085493E+00  1.9780272198E+00  8.7881491761E-01
  2.6046822742E+04  1.6501014263E+01  5.1319887752E+00  4.0523371240E+00  1.9911206182E+00  8.7994158234E-01
  2.6143812709E+04  1.6598979549E+01  5.1310987195E+00  4.1013720607E+00  2.0041865648E+00  8.8105811121E-01
  2.6240802676E+04  1.6697161417E+01  5.1302122741E+00  4.1508152258E+00  2.0172244448E+00  8.8216456254E-01
  2.6337792642E+04  1.6796016354E+01  5.1294050416E+00  4.2006684871E+00  2.0302521405E+00  8.8326100194E-01
  2.6434782609E+04  1.6895089963E+01  5.1286009027E+00  4.2509337142E+00  2.0432507916E+00  8.8434749654E-01
  2.6531772575E+04  1.6994381921E+01  5.1277998341E+00  4.3016127780E+00  2.0562197795E+00  8.8542411451E-01
  2.6628762542E+04  1.7093891908E+01  5.1270018131E+00  4.3527075513E+00  2.0691584969E+00  8.8649092495E-01
  2.6725752508E+04  1.7193773663E+01  5.1262320568E+00  4.4042199082E+00  2.0820727711E+00  8.8754799782E-01
  2.6822742475E+04  1.7294176633E+01  5.1255144844E+00  4.4561517246E+00  2.0949683796E+00  8.8859540393E-01
  2.6919732441E+04  1.7394800333E+01  5.1247996019E+00  4.5085048777E+00  2.1078322928E+00  8.8963321481E-01
  2.7016722408E+04  1.7495644449E+01  5.1240873897E+00  4.5612812464E+00  2.1206639494E+00  8.9066150269E-01
  2.7113712375E+04  1.7596708671E+01  5.1233778281E+00  4.6144827112E+00  2.1334627994E+00  8.9168034043E-01
  2.7210702341E+04  1.7698262238E+01  5.1227143661E+00  4.6681111540E+00  2.1462398983E+00  8.9268980072E-01
  2.7307692308E+04  1.7800222389E+01  5.1220830031E+00  4.7221684584E+00  2.1589913048E+00  8.9368995181E-01
  2.7404682274E+04  1.7902405315E+01  5.1214539560E+00  4.7766585010E+00  2.1717090549E+00  8.9468086060E-01
  2.7501672241E+04  1.8004810712E+01  5.1208272081E+00  4.8315897068E+00  2.1843939656E+00  8.9566259479E-01
  2.7598662207E+04  1.8107438278E+01  5.1202027429E+00  4.8869556486E+00  2.1970438034E+00  8.9663522287E-01
  2.7695652174E+04  1.8210634783E+01  5.1196356720E+00  4.9427582183E+00  2.2096734644E+00  8.9759881397E-01
  2.7792642140E+04  1.8314160842E+01  5.1190872708E+00  4.9989993089E+00  2.2222720204E+00  8.9855343788E-01
  2.7889632107E+04  1.8417911710E+01  5.1185408385E+00  5.0556808155E+00  2.2348343986E+00  8.9949916496E-01
  2.7986622074E+04  1.8521887090E+01  5.1179963612E+00  5.1128046342E+00  2.2473601470E+00  9.0043606608E-01
  2.8083612040E+04  1.8626086686E+01  5.1174538252E+00  5.1703726630E+00  2.2598488244E+00  9.0136421257E-01
  2.8180602007E+04  1.8730896544E+01  5.1169737004E+00  5.2283868011E+00  2.2723176138E+00  9.0228367616E-01
  2.8277591973E+04  1.8835996820E+01  5.1165052009E+00  5.2868489494E+00  2.2847516641E+00  9.0319452673E-01
  2.8374581940E+04  1.8941323921E+01  5.1160383482E+00  5.3457610104E+00  2.2971476896E+00  9.0409683046E-01
  2.8471571906E+04  1.9046877559E+01  5.1155731310E+00  5.4051248877E+00  2.3095052899E+00  9.0499065367E-01
  2.8568561873E+04  1.9152657449E+01  5.1151095380E+00  5.4649424869E+00  2.3218240754E+00  9.0587606326E-01
  2.8665551839E+04  1.9259050466E+01  5.1147073412E+00  5.5252157146E+00  2.3341218038E+00  9.0675312662E-01
  2.8762541806E+04  1.9365732842E+01  5.1143158569E+00  5.5859464794E+00  2.3463830808E+00  9.0762191166E-01
  2.8859531773E+04  1.9472644045E+01  5.1139257203E+00  5.6471366909E+00  2.3586047328E+00  9.0848248665E-01
  2.8956521739E+04  1.9579783795E+01  5.1135369224E+00  5.7087882604E+00  2.3707864090E+00  9.0933492026E-01
  2.9053511706E+04  1.9687151812E+01  5.1131494539E+00  5.7709031008E+00  2.3829277687E+00  9.1017928147E-01
  2.9150501672E+04  1.9795097285E+01  5.1128165656E+00  5.8334831263E+00  2.3950452836E+00  9.1101563952E-01
  2.9247491639E+04  1.9903369222E+01  5.1124993710E+00  5.8965302525E+00  2.4071266932E+00  9.1184406268E-01
  2.9344481605E+04  2.0011871971E+01  5.1121832460E+00  5.9600463966E+00  2.4191671121E+00  9.1266461555E-01
  2.9441471572E+04  2.0120605258E+01  5.1118681837E+00  6.0240334773E+00  2.4311662365E+00  9.1347736232E-01
  2.9538461538E+04  2.0229568810E+01  5.1115541768E+00  6.0884934147E+00  2.4431237720E+00  9.1428236763E-01
  2.9635451505E+04  2.0339035623E+01  5.1112823504E+00  6.1534281302E+00  2.4550529043E+00  9.1507969648E-01
  2.9732441472E+04  2.0448904160E+01  5.1110368687E+00  6.2188395468E+00  2.4669484624E+00  9.1586941417E-01
  2.9829431438E+04  2.0559005472E+01  5.1107921982E+00  6.2847295890E+00  2.4788018855E+00  9.1665158631E-01
  2.9926421405E+04  2.0669339294E+01  5.1105483337E+00  6.3511001827E+00  2.4906129141E+00  9.1742627872E-01
  3.0023411371E+04  2.0779905361E+01  5.1103052698E+00  6.4180547476E+00  2.5023967267E+00  9.1819355744E-01
  3.0120401338E+04  2.0890861894E+01  5.1100865854E+00  6.4858173388E+00  2.5141939336E+00  9.1895348879E-01
  3.0217391304E+04  2.1002333080E+01  5.1099103181E+00  6.5540737931E+00  2.5259620358E+00  9.1970614476E-01
  3.0314381271E+04  2.1114038983E+01  5.1097346217E+00  6.6228261045E+00  2.5376867119E+00  9.2045158853E-01
  3.0411371237E+04  2.1225979344E+01  5.1095594926E+00  6.6920762681E+00  2.5493677378E+00  9.2118987877E-01
  3.0508361204E+04  2.1338153905E+01  5.1093849271E+00  6.7618262812E+00  2.5610048982E+00  9.2192107458E-01
  3.0605351171E+04  2.1450568332E+01  5.1092117944E+00  6.8320781421E+00  2.5725982924E+00  9.2264523547E-01
  3.0702341137E+04  2.1563646381E+01  5.1091022285E+00  6.9028338512E+00  2.5841697135E+00  9.2336242128E-01
  3.0799331104E+04  2.1676961052E+01  5.1089930105E+00  6.9740954101E+00  2.5956969395E+00  9.2407269214E-01
  3.0896321070E+04  2.1790512093E+01  5.1088841382E+00  7.0458648221E+00  2.6071797863E+00  9.2477610846E-01
  3.0993311037E+04  2.1904299253E+01  5.1087756094E+00  7.1181440923E+00  2.6186180774E+00  9.2547273086E-01
  3.1090301003E+04  2.2018322281E+01  5.1086674221E+00  7.1909352269E+00  2.6300116443E+00  9.2616262011E-01
  3.1187290970E+04  2.2132828090E+01  5.1085954858E+00  7.2642402341E+00  2.6413734471E+00  9.2684583714E-01
