#[MATERIAL DEFINITION FOR MC-GPU: interaction mean free path and sampling data from PENELOPE 2006]
#[MATERIAL NAME]
# water                                                         
#[NOMINAL DENSITY (g/cm^3)]
#   1.00000000
#[NUMBER OF DATA VALUES]
#   1495
#[MEAN FREE PATHS (cm) (ie, average distance between interactions)]
#[Energy (eV)     | Rayleigh        | Compton         | Photoelectric   | TOTAL (+pair prod) (cm) | Rayleigh: max cumul prob F^2]
  5.0000000000E+03  1.7991169272E+00  8.3545665247E+00  2.3888074252E-02  2.3508715293E-02  3.5128247063E-01
  5.0969899666E+03  1.8394858669E+00  8.2574877070E+00  2.5320197752E-02  2.4901083750E-02  3.5623945606E-01
  5.1939799331E+03  1.8803431905E+00  8.1653860736E+00  2.6808739054E-02  2.6346604268E-02  3.6107888933E-01
  5.2909698997E+03  1.9216795111E+00  8.0779201174E+00  2.8354804794E-02  2.7846183613E-02  3.6580587461E-01
  5.3879598662E+03  1.9634852814E+00  7.9947762333E+00  2.9959502240E-02  2.9400720594E-02  3.7042541578E-01
  5.4849498328E+03  2.0057508213E+00  7.9156660091E+00  3.1625027159E-02  3.1012151933E-02  3.7494247558E-01
  5.5819397993E+03  2.0484663468E+00  7.8403238258E+00  3.3364652443E-02  3.2693034688E-02  3.7936168713E-01
  5.6789297659E+03  2.0916219995E+00  7.7685047276E+00  3.5167514798E-02  3.4432705425E-02  3.8368778564E-01
  5.7759197324E+03  2.1352078766E+00  7.6999825261E+00  3.7034773918E-02  3.6232069401E-02  3.8792538873E-01
  5.8729096990E+03  2.1792140618E+00  7.6345481103E+00  3.8967590584E-02  3.8092022572E-02  3.9207877982E-01
  5.9698996656E+03  2.2236306605E+00  7.5720079341E+00  4.0967126649E-02  4.0013451301E-02  3.9615195803E-01
  6.0668896321E+03  2.2684480039E+00  7.5121824650E+00  4.3040547111E-02  4.2002948330E-02  4.0014895435E-01
  6.1638795987E+03  2.3136569886E+00  7.4549046569E+00  4.5186324032E-02  4.4058791331E-02  4.0407376066E-01
  6.2608695652E+03  2.3592490755E+00  7.4000189676E+00  4.7403056923E-02  4.6179384675E-02  4.0793009151E-01
  6.3578595318E+03  2.4052158756E+00  7.3473809108E+00  4.9691938295E-02  4.8365594472E-02  4.1172141066E-01
  6.4548494983E+03  2.4515621998E+00  7.2969245511E+00  5.2054161905E-02  5.0618284651E-02  4.1545108228E-01
  6.5518394649E+03  2.4982819041E+00  7.2485360252E+00  5.4490922744E-02  5.2938302365E-02  4.1912242650E-01
  6.6488294314E+03  2.5453529725E+00  7.2020265683E+00  5.7003417012E-02  5.5326471299E-02  4.2273855542E-01
  6.7458193980E+03  2.5927672063E+00  7.1572866123E+00  5.9592842107E-02  5.7783611770E-02  4.2630238737E-01
  6.8428093645E+03  2.6405166413E+00  7.1142140770E+00  6.2260396608E-02  6.0310531859E-02  4.2981673217E-01
  6.9397993311E+03  2.6885935805E+00  7.0727138142E+00  6.5007280255E-02  6.2908027129E-02  4.3328430514E-01
  7.0367892977E+03  2.7369918462E+00  7.0327036447E+00  6.7845385149E-02  6.5586872931E-02  4.3670766392E-01
  7.1337792642E+03  2.7857398209E+00  6.9942900666E+00  7.0784115274E-02  6.8355464678E-02  4.4008923121E-01
  7.2307692308E+03  2.8347946293E+00  6.9571990245E+00  7.3807859705E-02  7.1198763125E-02  4.4343134115E-01
  7.3277591973E+03  2.8841504745E+00  6.9213573008E+00  7.6917887901E-02  7.4117557015E-02  4.4673617483E-01
  7.4247491639E+03  2.9338018308E+00  6.8866965956E+00  8.0115470988E-02  7.7112620845E-02  4.5000579718E-01
  7.5217391304E+03  2.9837619916E+00  6.8532523921E+00  8.3401881730E-02  8.0184741543E-02  4.5324217490E-01
  7.6187290970E+03  3.0340297080E+00  6.8209893685E+00  8.6778394518E-02  8.3334676121E-02  4.5644718604E-01
  7.7157190635E+03  3.0845757768E+00  6.7897236081E+00  9.0246285345E-02  8.6563121857E-02  4.5962262869E-01
  7.8127090301E+03  3.1353954589E+00  6.7594027382E+00  9.3806831793E-02  8.9870793303E-02  4.6277023107E-01
  7.9096989967E+03  3.1865094387E+00  6.7301165302E+00  9.7461313008E-02  9.3258437441E-02  4.6589160138E-01
  8.0066889632E+03  3.2379035103E+00  6.7017724246E+00  1.0121219172E-01  9.6727807455E-02  4.6898818366E-01
  8.1036789298E+03  3.2895557061E+00  6.6742288456E+00  1.0507610903E-01  1.0029352229E-01  4.7206136280E-01
  8.2006688963E+03  3.3414696273E+00  6.6474859686E+00  1.0903892106E-01  1.0394211364E-01  4.7511247766E-01
  8.2976588629E+03  3.3936700209E+00  6.6216648152E+00  1.1310194434E-01  1.0767430697E-01  4.7814282562E-01
  8.3946488294E+03  3.4461163195E+00  6.5965241435E+00  1.1726649715E-01  1.1149065589E-01  4.8115366667E-01
  8.4916387960E+03  3.4988071088E+00  6.5720393169E+00  1.2153389949E-01  1.1539178182E-01  4.8414617540E-01
  8.5886287625E+03  3.5517791870E+00  6.5484050529E+00  1.2590547305E-01  1.1937840438E-01  4.8712134993E-01
  8.6856187291E+03  3.6049860479E+00  6.5253502483E+00  1.3038254124E-01  1.2345098958E-01  4.9008013900E-01
  8.7826086957E+03  3.6584302245E+00  6.5028757885E+00  1.3496642909E-01  1.2761011677E-01  4.9302347069E-01
  8.8795986622E+03  3.7121407001E+00  6.4811415107E+00  1.3965846331E-01  1.3185644887E-01  4.9595225457E-01
  8.9765886288E+03  3.7660758490E+00  6.4599016409E+00  1.4445997225E-01  1.3619038490E-01  4.9886738355E-01
  9.0735785953E+03  3.8202484447E+00  6.4392206956E+00  1.4939692787E-01  1.4063432800E-01  5.0176967264E-01
  9.1705685619E+03  3.8746663489E+00  6.4191413921E+00  1.5445547445E-01  1.4517520565E-01  5.0465978687E-01
  9.2675585284E+03  3.9293006295E+00  6.3994853533E+00  1.5962936891E-01  1.4980662571E-01  5.0753836528E-01
  9.3645484950E+03  3.9841788168E+00  6.3804086639E+00  1.6491999295E-01  1.5452920278E-01  5.1040603967E-01
  9.4615384615E+03  4.0392785837E+00  6.3617762156E+00  1.7032873020E-01  1.5934330387E-01  5.1326343555E-01
  9.5585284281E+03  4.0945960762E+00  6.3435578564E+00  1.7585696613E-01  1.6424935188E-01  5.1611116573E-01
  9.6555183946E+03  4.1501506459E+00  6.3258689152E+00  1.8150608813E-01  1.6924788804E-01  5.1894973275E-01
  9.7525083612E+03  4.2059091130E+00  6.3085052629E+00  1.8727748541E-01  1.7433912717E-01  5.2177956081E-01
  9.8494983278E+03  4.2618996378E+00  6.2916359888E+00  1.9317254906E-01  1.7952363153E-01  5.2460107160E-01
  9.9464882943E+03  4.3180970516E+00  6.2751075396E+00  1.9919267196E-01  1.8480160838E-01  5.2741468610E-01
  1.0043478261E+04  4.3745084650E+00  6.2589599960E+00  2.0534876577E-01  1.9018161066E-01  5.3022082412E-01
  1.0140468227E+04  4.4311362867E+00  6.2432039539E+00  2.1164521222E-01  1.9566644689E-01  5.3301984774E-01
  1.0237458194E+04  4.4879642137E+00  6.2277359760E+00  2.1807201761E-01  2.0124647065E-01  5.3581202847E-01
  1.0334448161E+04  4.5450184736E+00  6.2126981336E+00  2.2463060740E-01  2.0692217341E-01  5.3859763223E-01
  1.0431438127E+04  4.6022639732E+00  6.1978862688E+00  2.3132240900E-01  2.1269353264E-01  5.4137692699E-01
  1.0528428094E+04  4.6597399211E+00  6.1835043349E+00  2.3814885169E-01  2.1856111394E-01  5.4415018236E-01
  1.0625418060E+04  4.7174071459E+00  6.1693386602E+00  2.4511136668E-01  2.2452480185E-01  5.4691762736E-01
  1.0722408027E+04  4.7752972676E+00  6.1555430196E+00  2.5221138704E-01  2.3058506658E-01  5.4967941728E-01
  1.0819397993E+04  4.8333839234E+00  6.1419802915E+00  2.5945034771E-01  2.3674184431E-01  5.5243570331E-01
  1.0916387960E+04  4.8916872529E+00  6.1287401784E+00  2.6682968548E-01  2.4299546969E-01  5.5518663987E-01
  1.1013377926E+04  4.9501909937E+00  6.1157402663E+00  2.7435083899E-01  2.4934591546E-01  5.5793238298E-01
  1.1110367893E+04  5.0089066962E+00  6.1030268843E+00  2.8201524868E-01  2.5579339830E-01  5.6067304560E-01
  1.1207357860E+04  5.0678251120E+00  6.0905525287E+00  2.8984064952E-01  2.6235125448E-01  5.6340869320E-01
  1.1304347826E+04  5.1269524770E+00  6.0783388895E+00  2.9785602964E-01  2.6904191416E-01  5.6613939264E-01
  1.1401337793E+04  5.1862830806E+00  6.0663554835E+00  3.0602174279E-01  2.7583151033E-01  5.6886521440E-01
  1.1498327759E+04  5.2458215150E+00  6.0546162612E+00  3.1433929365E-01  2.8272011941E-01  5.7158622486E-01
  1.1595317726E+04  5.3055617304E+00  6.0430916529E+00  3.2281018905E-01  2.8970767259E-01  5.7430244202E-01
  1.1692307692E+04  5.3655107521E+00  6.0318030523E+00  3.3143593790E-01  2.9679422718E-01  5.7701386707E-01
  1.1789297659E+04  5.4256579024E+00  6.0207073654E+00  3.4021805123E-01  3.0397961209E-01  5.7972050510E-01
  1.1886287625E+04  5.4860171343E+00  6.0098470032E+00  3.4915804212E-01  3.1126391778E-01  5.8242236678E-01
  1.1983277592E+04  5.5465684308E+00  5.9991524740E+00  3.5825742573E-01  3.1864681307E-01  5.8511946755E-01
  1.2080267559E+04  5.6073375947E+00  5.9886992707E+00  3.6751771928E-01  3.2612848481E-01  5.8781175083E-01
  1.2177257525E+04  5.6682901257E+00  5.9783800998E+00  3.7694044200E-01  3.3370837278E-01  5.9049914737E-01
  1.2274247492E+04  5.7294690369E+00  5.9683141816E+00  3.8652711518E-01  3.4138683506E-01  5.9318159201E-01
  1.2371237458E+04  5.7908197579E+00  5.9583463993E+00  3.9627926208E-01  3.4916300162E-01  5.9585902355E-01
  1.2468227425E+04  5.8524083871E+00  5.9486490434E+00  4.0619840799E-01  3.5703748938E-01  5.9853138460E-01
  1.2565217391E+04  5.9141671897E+00  5.9390424312E+00  4.1628931666E-01  3.6501168355E-01  6.0119862151E-01
  1.2662207358E+04  5.9761548383E+00  5.9296650743E+00  4.2655202428E-01  3.7308488307E-01  6.0386068421E-01
  1.2759197324E+04  6.0383254908E+00  5.9204058541E+00  4.3698652130E-01  3.8125502218E-01  6.0651750864E-01
  1.2856187291E+04  6.1007118048E+00  5.9113280487E+00  4.4759434462E-01  3.8952218444E-01  6.0916897540E-01
  1.2953177258E+04  6.1633012375E+00  5.9024029800E+00  4.5837703313E-01  3.9788588775E-01  6.1181496322E-01
  1.3050167224E+04  6.2260859506E+00  5.8936074325E+00  4.6933612765E-01  4.0634564805E-01  6.1445535511E-01
  1.3147157191E+04  6.2891016359E+00  5.8850040942E+00  4.8047317091E-01  4.1490155435E-01  6.1709003807E-01
  1.3244147157E+04  6.3522849087E+00  5.8764764132E+00  4.9178970759E-01  4.2355237262E-01  6.1971890303E-01
  1.3341137124E+04  6.4157333673E+00  5.8681810444E+00  5.0328728427E-01  4.3229893260E-01  6.2234184474E-01
  1.3438127090E+04  6.4793503148E+00  5.8599593075E+00  5.1496744940E-01  4.4113954083E-01  6.2495876166E-01
  1.3535117057E+04  6.5432024761E+00  5.8519071162E+00  5.2683175334E-01  4.5007457365E-01  6.2756954285E-01
  1.3632107023E+04  6.6072612177E+00  5.8439803659E+00  5.3888174833E-01  4.5910318446E-01  6.3017404401E-01
  1.3729096990E+04  6.6715143067E+00  5.8361569424E+00  5.5115268022E-01  4.6824899251E-01  6.3277212139E-01
  1.3826086957E+04  6.7360231982E+00  5.8285147640E+00  5.6367186941E-01  4.7753037347E-01  6.3536363546E-01
  1.3923076923E+04  6.8006983549E+00  5.8209359110E+00  5.7638492082E-01  4.8690491030E-01  6.3794845077E-01
  1.4020066890E+04  6.8656410621E+00  5.8135389055E+00  5.8929345456E-01  4.9637337302E-01  6.4052643591E-01
  1.4117056856E+04  6.9307750119E+00  5.8062314148E+00  6.0239909293E-01  5.0593414661E-01  6.4309746344E-01
  1.4214046823E+04  6.9961187796E+00  5.7990303462E+00  6.1570346032E-01  5.1558683347E-01  6.4566140857E-01
  1.4311036789E+04  7.0617204280E+00  5.7919849684E+00  6.2920818329E-01  5.2533147476E-01  6.4821812954E-01
  1.4408026756E+04  7.1274878801E+00  5.7849956513E+00  6.4291489050E-01  5.3516611397E-01  6.5076747424E-01
  1.4505016722E+04  7.1935378733E+00  5.7781756461E+00  6.5682521271E-01  5.4509169859E-01  6.5330929498E-01
  1.4602006689E+04  7.2597824338E+00  5.7714367274E+00  6.7094078277E-01  5.5510630267E-01  6.5584344834E-01
  1.4698996656E+04  7.3262296519E+00  5.7647835139E+00  6.8526323563E-01  5.6520928663E-01  6.5836979514E-01
  1.4795986622E+04  7.3929607154E+00  5.7582867425E+00  6.9979420830E-01  5.7540110579E-01  6.6088820037E-01
  1.4892976589E+04  7.4598576372E+00  5.7518396696E+00  7.1453533984E-01  5.8567927282E-01  6.6339853281E-01
  1.4989966555E+04  7.5270242581E+00  5.7455270960E+00  7.2948827137E-01  5.9604452190E-01  6.6590065329E-01
  1.5086956522E+04  7.5944179263E+00  5.7393117770E+00  7.4468463727E-01  6.0651534734E-01  6.6839441379E-01
  1.5183946488E+04  7.6619773381E+00  5.7331429459E+00  7.6010065649E-01  6.1707283597E-01  6.7087967036E-01
  1.5280936455E+04  7.7298751688E+00  5.7271494873E+00  7.7573459393E-01  6.2771651514E-01  6.7335628347E-01
  1.5377926421E+04  7.7979432767E+00  5.7212030381E+00  7.9158811755E-01  6.3844297823E-01  6.7582411799E-01
  1.5474916388E+04  7.8662298311E+00  5.7153364508E+00  8.0766289738E-01  6.4925205888E-01  6.7828304309E-01
  1.5571906355E+04  7.9348189290E+00  5.7096060211E+00  8.2396060555E-01  6.6014421751E-01  6.8073293447E-01
  1.5668896321E+04  8.0035746307E+00  5.7039168651E+00  8.4048291622E-01  6.7111640411E-01  6.8317367324E-01
  1.5765886288E+04  8.0726037420E+00  5.6983365501E+00  8.5723150567E-01  6.8216937578E-01  6.8560511769E-01
  1.5862876254E+04  8.1418938584E+00  5.6928552046E+00  8.7420805219E-01  6.9330204261E-01  6.8802712738E-01
  1.5959866221E+04  8.2113509100E+00  5.6874124961E+00  8.9141423611E-01  7.0451190292E-01  6.9043956658E-01
  1.6056856187E+04  8.2811329099E+00  5.6821006194E+00  9.0885173982E-01  7.1580057992E-01  6.9284230420E-01
  1.6153846154E+04  8.3511382225E+00  5.6768580058E+00  9.2652224769E-01  7.2716545855E-01  6.9523521378E-01
  1.6250836120E+04  8.4213109521E+00  5.6716515694E+00  9.4442744614E-01  7.3860457073E-01  6.9761817340E-01
  1.6347826087E+04  8.4918548222E+00  5.6665912591E+00  9.6256902356E-01  7.5012036970E-01  6.9999106566E-01
  1.6444816054E+04  8.5625900621E+00  5.6615776577E+00  9.8094867036E-01  7.6170881468E-01  7.0235377760E-01
  1.6541806020E+04  8.6334955837E+00  5.6565990666E+00  9.9956807889E-01  7.7336845891E-01  7.0470620068E-01
  1.6638795987E+04  8.7048066106E+00  5.6517732103E+00  1.0184289435E+00  7.8510238876E-01  7.0704823069E-01
  1.6735785953E+04  8.7762870416E+00  5.6469794844E+00  1.0375329606E+00  7.9690544100E-01  7.0937976772E-01
  1.6832775920E+04  8.8479538124E+00  5.6422257285E+00  1.0568818283E+00  8.0877679457E-01  7.1170071300E-01
  1.6929765886E+04  8.9200249015E+00  5.6376131921E+00  1.0764772468E+00  8.2071932639E-01  7.1401095373E-01
  1.7026755853E+04  8.9922663011E+00  5.6330307439E+00  1.0963209185E+00  8.3272774911E-01  7.1631037794E-01
  1.7123745819E+04  9.0646983880E+00  5.6284872001E+00  1.1164145472E+00  8.4480128306E-01  7.1859887866E-01
  1.7220735786E+04  9.1375456693E+00  5.6240797542E+00  1.1367598390E+00  8.5694301900E-01  7.2087635366E-01
  1.7317725753E+04  9.2105643094E+00  5.6197004844E+00  1.1573585017E+00  8.6914733383E-01  7.2314270529E-01
  1.7414715719E+04  9.2837640078E+00  5.6153532573E+00  1.1782122453E+00  8.8141322751E-01  7.2539784050E-01
  1.7511705686E+04  9.3574040575E+00  5.6111431644E+00  1.1993436283E+00  8.9375612900E-01  7.2764167072E-01
  1.7608695652E+04  9.4312166540E+00  5.6069594557E+00  1.2208883213E+00  9.0624334671E-01  7.2987411183E-01
  1.7705685619E+04  9.5052012478E+00  5.6028018217E+00  1.2426984975E+00  9.1878990169E-01  7.3209508409E-01
  1.7802675585E+04  9.5796338936E+00  5.5987754925E+00  1.2647759470E+00  9.3140007548E-01  7.3430451204E-01
  1.7899665552E+04  9.6542572825E+00  5.5947803578E+00  1.2871224622E+00  9.4406765213E-01  7.3650232449E-01
  1.7996655518E+04  9.7290540019E+00  5.5908096402E+00  1.3097398376E+00  9.5679103361E-01  7.3868845227E-01
  1.8093645485E+04  9.8042671534E+00  5.5869507046E+00  1.3326298701E+00  9.6957396913E-01  7.4086281771E-01
  1.8190635452E+04  9.8797183988E+00  5.5831376592E+00  1.3557943586E+00  9.8241169013E-01  7.4302534380E-01
  1.8287625418E+04  9.9553444394E+00  5.5793474722E+00  1.3792351041E+00  9.9530164047E-01  7.4517595817E-01
  1.8384615385E+04  1.0031334236E+01  5.5756442657E+00  1.4029539098E+00  1.0082465515E+00  7.4731459289E-01
  1.8481605351E+04  1.0107630803E+01  5.5720071782E+00  1.4269525812E+00  1.0212440939E+00  7.4944118445E-01
  1.8578595318E+04  1.0184103760E+01  5.5683914819E+00  1.4512329257E+00  1.0342902596E+00  7.5155567365E-01
  1.8675585284E+04  1.0260864201E+01  5.5648328120E+00  1.4757967529E+00  1.0473861835E+00  7.5365800556E-01
  1.8772575251E+04  1.0338023943E+01  5.5613658783E+00  1.5006458746E+00  1.0605331517E+00  7.5574812941E-01
  1.8869565217E+04  1.0415361801E+01  5.5579189540E+00  1.5257821046E+00  1.0737251188E+00  7.5782599850E-01
  1.8966555184E+04  1.0492884644E+01  5.5544940682E+00  1.5512072588E+00  1.0869609446E+00  7.5989157018E-01
  1.9063545151E+04  1.0570925788E+01  5.5511917895E+00  1.5769231552E+00  1.1002469053E+00  7.6194480512E-01
  1.9160535117E+04  1.0649146902E+01  5.5479082177E+00  1.6029316139E+00  1.1135742339E+00  7.6398565932E-01
  1.9257525084E+04  1.0727547486E+01  5.5446431528E+00  1.6292344572E+00  1.1269416222E+00  7.6601408672E-01
  1.9354515050E+04  1.0806362691E+01  5.5414639368E+00  1.6558335091E+00  1.1403532450E+00  7.6803004541E-01
  1.9451505017E+04  1.0885485775E+01  5.5383385773E+00  1.6827305961E+00  1.1538055020E+00  7.7003349762E-01
  1.9548494983E+04  1.0964790321E+01  5.5352305126E+00  1.7099275463E+00  1.1672941938E+00  7.7202440964E-01
  1.9645484950E+04  1.1044359253E+01  5.5321622750E+00  1.7374261903E+00  1.1808200014E+00  7.7400275174E-01
  1.9742474916E+04  1.1124403367E+01  5.5291902488E+00  1.7652283603E+00  1.1943867927E+00  7.7596849808E-01
  1.9839464883E+04  1.1204631062E+01  5.5262343727E+00  1.7933358908E+00  1.2079864130E+00  7.7792162663E-01
  1.9936454849E+04  1.1285041858E+01  5.5232944805E+00  1.8217506183E+00  1.2216175612E+00  7.7986211906E-01
  2.0033444816E+04  1.1365922029E+01  5.5204442970E+00  1.8504788296E+00  1.2352880072E+00  7.8178996068E-01
  2.0130434783E+04  1.1447091431E+01  5.5176360334E+00  1.8795265985E+00  1.2489940289E+00  7.8370513822E-01
  2.0227424749E+04  1.1528446180E+01  5.5148426860E+00  1.9088874306E+00  1.2627280572E+00  7.8560763290E-01
  2.0324414716E+04  1.1610059923E+01  5.5120825755E+00  1.9385631745E+00  1.2764906881E+00  7.8749742739E-01
  2.0421404682E+04  1.1692184501E+01  5.5094175486E+00  1.9685556809E+00  1.2902871950E+00  7.8937450814E-01
  2.0518394649E+04  1.1774496743E+01  5.5067664284E+00  1.9988668023E+00  1.3041081770E+00  7.9123886532E-01
  2.0615384615E+04  1.1856996186E+01  5.5041290772E+00  2.0294983934E+00  1.3179523574E+00  7.9309049268E-01
  2.0712374582E+04  1.1939916634E+01  5.5015616892E+00  2.0604523108E+00  1.3318246797E+00  7.9492938751E-01
  2.0809364548E+04  1.2023198114E+01  5.4990486784E+00  2.0917304129E+00  1.3457224823E+00  7.9675555050E-01
  2.0906354515E+04  1.2106669170E+01  5.4965484931E+00  2.1233345603E+00  1.3596400175E+00  7.9856898569E-01
  2.1003344482E+04  1.2190329351E+01  5.4940610089E+00  2.1552666154E+00  1.3735760304E+00  8.0036970034E-01
  2.1100334448E+04  1.2274552938E+01  5.4916730892E+00  2.1875284426E+00  1.3875396135E+00  8.0215770348E-01
  2.1197324415E+04  1.2359007425E+01  5.4893061976E+00  2.2201219082E+00  1.4015205853E+00  8.0393299931E-01
  2.1294314381E+04  1.2443653471E+01  5.4869511244E+00  2.2530488805E+00  1.4155166491E+00  8.0569559250E-01
  2.1391304348E+04  1.2528562371E+01  5.4846239575E+00  2.2863112296E+00  1.4295286116E+00  8.0744549106E-01
  2.1488294314E+04  1.2614012126E+01  5.4823866678E+00  2.3199108277E+00  1.4435632875E+00  8.0918270632E-01
  2.1585284281E+04  1.2699655925E+01  5.4801603601E+00  2.3538495487E+00  1.4576097394E+00  8.1090725277E-01
  2.1682274247E+04  1.2785493334E+01  5.4779449316E+00  2.3881292685E+00  1.4716667631E+00  8.1261914796E-01
  2.1779264214E+04  1.2871682905E+01  5.4757749745E+00  2.4227518651E+00  1.4857378346E+00  8.1431841244E-01
  2.1876254181E+04  1.2958336356E+01  5.4736739535E+00  2.4577192180E+00  1.4998252240E+00  8.1600506966E-01
  2.1973244147E+04  1.3045185960E+01  5.4715830277E+00  2.4930332088E+00  1.5139199715E+00  8.1767914584E-01
  2.2070234114E+04  1.3132231291E+01  5.4695021045E+00  2.5286957211E+00  1.5280209074E+00  8.1934066652E-01
  2.2167224080E+04  1.3219692808E+01  5.4674776912E+00  2.5647086400E+00  1.5421335834E+00  8.2098965311E-01
  2.2264214047E+04  1.3307566562E+01  5.4655079864E+00  2.6010738529E+00  1.5562569187E+00  8.2262612914E-01
  2.2361204013E+04  1.3395638645E+01  5.4635475486E+00  2.6377947995E+00  1.5703838909E+00  8.2425012105E-01
  2.2458193980E+04  1.3483908643E+01  5.4615962944E+00  2.6751722521E+00  1.5846182252E+00  8.2586165809E-01
  2.2555183946E+04  1.3572631532E+01  5.4597062568E+00  2.7129148379E+00  1.5988617688E+00  8.2746077223E-01
  2.2652173913E+04  1.3661742371E+01  5.4578632052E+00  2.7510245309E+00  1.6131115450E+00  8.2904749805E-01
  2.2749163880E+04  1.3751053784E+01  5.4560286464E+00  2.7895033068E+00  1.6273606090E+00  8.3062187266E-01
  2.2846153846E+04  1.3840565363E+01  5.4542025053E+00  2.8283531438E+00  1.6416078425E+00  8.3218393562E-01
  2.2943143813E+04  1.3930537144E+01  5.4524361373E+00  2.8675760220E+00  1.6558605607E+00  8.3373372720E-01
  2.3040133779E+04  1.4020902019E+01  5.4507153440E+00  2.9071739236E+00  1.6701156959E+00  8.3527128318E-01
  2.3137123746E+04  1.4111469777E+01  5.4490023190E+00  2.9471488330E+00  1.6843660742E+00  8.3679664010E-01
  2.3234113712E+04  1.4202240022E+01  5.4472969950E+00  2.9875027368E+00  1.6986106217E+00  8.3830983703E-01
  2.3331103679E+04  1.4293446237E+01  5.4456440196E+00  3.0282376233E+00  1.7128560579E+00  8.3981091546E-01
  2.3428093645E+04  1.4385082257E+01  5.4440413380E+00  3.0693554834E+00  1.7271013161E+00  8.4129991925E-01
  2.3525083612E+04  1.4476923538E+01  5.4424457465E+00  3.1108583096E+00  1.7413379558E+00  8.4277689450E-01
  2.3622073579E+04  1.4568969690E+01  5.4408571846E+00  3.1527480968E+00  1.7555649495E+00  8.4424188948E-01
  2.3719063545E+04  1.4661393843E+01  5.4393077239E+00  3.1950268419E+00  1.7697872116E+00  8.4569495451E-01
  2.3816053512E+04  1.4754318270E+01  5.4378192383E+00  3.2376965438E+00  1.7840080884E+00  8.4713613990E-01
  2.3913043478E+04  1.4847450402E+01  5.4363372069E+00  3.2807592034E+00  1.7982166755E+00  8.4856549175E-01
  2.4010033445E+04  1.4940789857E+01  5.4348615760E+00  3.3242168238E+00  1.8124119938E+00  8.4998305716E-01
  2.4107023411E+04  1.5034413341E+01  5.4334061239E+00  3.3680714099E+00  1.8265957775E+00  8.5138888539E-01
  2.4204013378E+04  1.5128643583E+01  5.4320281326E+00  3.4123249690E+00  1.8407785253E+00  8.5278302777E-01
  2.4301003344E+04  1.5223084039E+01  5.4306559994E+00  3.4569795101E+00  1.8549455082E+00  8.5416553761E-01
  2.4397993311E+04  1.5317734336E+01  5.4292896764E+00  3.5020370443E+00  1.8690957967E+00  8.5553647009E-01
  2.4494983278E+04  1.5412594103E+01  5.4279291159E+00  3.5474995849E+00  1.8832284739E+00  8.5689588222E-01
  2.4591973244E+04  1.5508089970E+01  5.4266480738E+00  3.5933691469E+00  1.8973580490E+00  8.5824383253E-01
  2.4688963211E+04  1.5603856360E+01  5.4253823733E+00  3.6396477476E+00  1.9114706546E+00  8.5958037703E-01
  2.4785953177E+04  1.5699835174E+01  5.4241219289E+00  3.6863374061E+00  1.9255633408E+00  8.6090556939E-01
  2.4882943144E+04  1.5796026049E+01  5.4228666981E+00  3.7334401436E+00  1.9396352414E+00  8.6221946498E-01
  2.4979933110E+04  1.5892686823E+01  5.4216600028E+00  3.7809579832E+00  1.9536950354E+00  8.6352212096E-01
  2.5076923077E+04  1.5989795847E+01  5.4204974315E+00  3.8289371565E+00  1.9677529357E+00  8.6481359621E-01
  2.5173913043E+04  1.6087119936E+01  5.4193395959E+00  3.8773480839E+00  1.9817909322E+00  8.6609395123E-01
  2.5270903010E+04  1.6184658733E+01  5.4181864585E+00  3.9261813966E+00  1.9958051602E+00  8.6736324807E-01
  2.5367892977E+04  1.6282458174E+01  5.4170456316E+00  3.9754391375E+00  2.0097965723E+00  8.6862155049E-01
  2.5464882943E+04  1.6380919668E+01  5.4159829207E+00  4.0251233516E+00  2.0237797508E+00  8.6986893040E-01
  2.5561872910E+04  1.6479598868E+01  5.4149244569E+00  4.0752360858E+00  2.0377371458E+00  8.7110544819E-01
  2.5658862876E+04  1.6578495425E+01  5.4138702074E+00  4.1257793891E+00  2.0516679900E+00  8.7233115951E-01
  2.5755852843E+04  1.6677608993E+01  5.4128201396E+00  4.1767553125E+00  2.0655715292E+00  8.7354612175E-01
  2.5852842809E+04  1.6777227592E+01  5.4118210832E+00  4.2281659087E+00  2.0794583708E+00  8.7475039398E-01
  2.5949832776E+04  1.6877268629E+01  5.4108588643E+00  4.2800132328E+00  2.0933247085E+00  8.7594403685E-01
  2.6046822742E+04  1.6977529647E+01  5.4099004051E+00  4.3322993414E+00  2.1071619129E+00  8.7712711250E-01
  2.6143812709E+04  1.7078010308E+01  5.4089456771E+00  4.3850262935E+00  2.1209692807E+00  8.7829968448E-01
  2.6240802676E+04  1.7178711307E+01  5.4079948181E+00  4.4381961497E+00  2.1347461630E+00  8.7946181769E-01
  2.6337792642E+04  1.7280120532E+01  5.4071258729E+00  4.4918109728E+00  2.1485117572E+00  8.8061357826E-01
  2.6434782609E+04  1.7381752337E+01  5.4062602606E+00  4.5458728273E+00  2.1622458333E+00  8.8175503352E-01
  2.6531772575E+04  1.7483606390E+01  5.4053979563E+00  4.6003837799E+00  2.1759477379E+00  8.8288625188E-01
  2.6628762542E+04  1.7585682362E+01  5.4045389353E+00  4.6553458991E+00  2.1896168306E+00  8.8400730279E-01
  2.6725752508E+04  1.7688144699E+01  5.4037092751E+00  4.7107612553E+00  2.2032593792E+00  8.8511825665E-01
  2.6822742475E+04  1.7791153248E+01  5.4029337106E+00  4.7666319209E+00  2.2168815945E+00  8.8621918475E-01
  2.6919732441E+04  1.7894386625E+01  5.4021610562E+00  4.8229599701E+00  2.2304694970E+00  8.8731015910E-01
  2.7016722408E+04  1.7997844509E+01  5.4013912905E+00  4.8797474792E+00  2.2440224952E+00  8.8839124702E-01
  2.7113712375E+04  1.8101526578E+01  5.4006243924E+00  4.9369965262E+00  2.2575400101E+00  8.8946250953E-01
  2.7210702341E+04  1.8205721040E+01  5.3999053738E+00  4.9947091911E+00  2.2710339298E+00  8.9052400844E-01
  2.7307692308E+04  1.8310339306E+01  5.3992197289E+00  5.0528875558E+00  2.2845000279E+00  8.9157580683E-01
  2.7404682274E+04  1.8415184639E+01  5.3985366015E+00  5.1115337042E+00  2.2979293173E+00  8.9261796893E-01
  2.7501672241E+04  1.8520256725E+01  5.3978559736E+00  5.1706497218E+00  2.3113212664E+00  8.9365056009E-01
  2.7598662207E+04  1.8625555252E+01  5.3971778272E+00  5.2302376962E+00  2.3246753558E+00  8.9467364669E-01
  2.7695652174E+04  1.8731451713E+01  5.3965593583E+00  5.2902997169E+00  2.3380076091E+00  8.9568729606E-01
  2.7792642140E+04  1.8837689667E+01  5.3959603758E+00  5.3508378751E+00  2.3513062876E+00  8.9669157642E-01
  2.7889632107E+04  1.8944156914E+01  5.3953635461E+00  5.4118542640E+00  2.3645659499E+00  8.9768655680E-01
  2.7986622074E+04  1.9050853149E+01  5.3947688540E+00  5.4733509787E+00  2.3777861226E+00  8.9867230700E-01
  2.8083612040E+04  1.9157778068E+01  5.3941762846E+00  5.5353301160E+00  2.3909663434E+00  8.9964889749E-01
  2.8180602007E+04  1.9265345583E+01  5.3936487067E+00  5.5977937747E+00  2.4041251058E+00  9.0061639939E-01
  2.8277591973E+04  1.9373212772E+01  5.3931333178E+00  5.6607440553E+00  2.4172464444E+00  9.0157488438E-01
  2.8374581940E+04  1.9481311466E+01  5.3926197426E+00  5.7241830603E+00  2.4303268366E+00  9.0252442455E-01
  2.8471571906E+04  1.9589641369E+01  5.3921079685E+00  5.7881128940E+00  2.4433658643E+00  9.0346508792E-01
  2.8568561873E+04  1.9698202185E+01  5.3915979832E+00  5.8525356624E+00  2.4563631204E+00  9.0439693706E-01
  2.8665551839E+04  1.9807409082E+01  5.3911520408E+00  5.9174534734E+00  2.4693377292E+00  9.0532003503E-01
  2.8762541806E+04  1.9916914626E+01  5.3907173511E+00  5.9828684369E+00  2.4822731297E+00  9.0623444577E-01
  2.8859531773E+04  2.0026653873E+01  5.3902841597E+00  6.0487826644E+00  2.4951659180E+00  9.0714023406E-01
  2.8956521739E+04  2.0136626535E+01  5.3898524563E+00  6.1151982692E+00  2.5080157287E+00  9.0803746542E-01
  2.9053511706E+04  2.0246832324E+01  5.3894222309E+00  6.1821173666E+00  2.5208222069E+00  9.0892620607E-01
  2.9150501672E+04  2.0357646302E+01  5.3890490442E+00  6.2495420736E+00  2.5336031052E+00  9.0980652287E-01
  2.9247491639E+04  2.0468798894E+01  5.3886923211E+00  6.3174745089E+00  2.5463452259E+00  9.1067848324E-01
  2.9344481605E+04  2.0580187372E+01  5.3883368026E+00  6.3859167933E+00  2.5590433191E+00  9.1154215513E-01
  2.9441471572E+04  2.0691811454E+01  5.3879824805E+00  6.4548710490E+00  2.5716970695E+00  9.1239760693E-01
  2.9538461538E+04  2.0803670859E+01  5.3876293469E+00  6.5243394002E+00  2.5843061716E+00  9.1324490745E-01
  2.9635451505E+04  2.0916059091E+01  5.3873203871E+00  6.5943239730E+00  2.5968848487E+00  9.1408412587E-01
  2.9732441472E+04  2.1028866993E+01  5.3870390479E+00  6.6648268949E+00  2.6094275349E+00  9.1491533164E-01
  2.9829431438E+04  2.1141912946E+01  5.3867586395E+00  6.7358502957E+00  2.6219250144E+00  9.1573859236E-01
  2.9926421405E+04  2.1255196674E+01  5.3864791560E+00  6.8073963065E+00  2.6343770191E+00  9.1655396978E-01
  3.0023411371E+04  2.1368717906E+01  5.3862005912E+00  6.8795830589E+00  2.6468004603E+00  9.1736152526E-01
  3.0120401338E+04  2.1482646808E+01  5.3859476310E+00  6.9526666002E+00  2.6592402658E+00  9.1816132077E-01
  3.0217391304E+04  2.1597116941E+01  5.3857391594E+00  7.0262878209E+00  2.6716489325E+00  9.1895341886E-01
  3.0314381271E+04  2.1711827264E+01  5.3855313639E+00  7.1004489318E+00  2.6840110273E+00  9.1973788260E-01
  3.0411371237E+04  2.1826777510E+01  5.3853242402E+00  7.1751521457E+00  2.6963263199E+00  9.2051477551E-01
  3.0508361204E+04  2.1941967413E+01  5.3851177840E+00  7.2503996775E+00  2.7085945889E+00  9.2128416156E-01
  3.0605351171E+04  2.2057403069E+01  5.3849129058E+00  7.3261937438E+00  2.7208159520E+00  9.2204610506E-01
  3.0702341137E+04  2.2173539617E+01  5.3847747432E+00  7.4025365633E+00  2.7330139108E+00  9.2280067062E-01
  3.0799331104E+04  2.2289918450E+01  5.3846370198E+00  7.4794303568E+00  2.7451645174E+00  9.2354792314E-01
  3.0896321070E+04  2.2406539310E+01  5.3844997329E+00  7.5568773467E+00  2.7572675838E+00  9.2428792775E-01
  3.0993311037E+04  2.2523401938E+01  5.3843628798E+00  7.6348797575E+00  2.7693229301E+00  9.2502074974E-01
  3.1090301003E+04  2.2640506075E+01  5.3842264578E+00  7.7134398158E+00  2.7813303848E+00  9.2574645441E-01
  3.1187290970E+04  2.2758116498E+01  5.3841281601E+00  7.7925597498E+00  2.7933039235E+00  9.2646510346E-01
